f1ch1,f1ch2,f2ch1,f2ch2,f3ch1,f3ch2,f4ch1,f4ch2,Category
0.000906037189667991,0.004479430737713731,0.08417246148744655,0.4641426140418828,14,24,59,58,0
0.0009328636533905965,0.004189110595934699,0.09492898898383131,0.48440778765064185,21,26,62,61,0
0.0010121353091784955,0.003967870607761513,0.10065764500270354,0.4703411683586564,20,24,68,63,0
0.0011733592183641973,0.004290977118431475,0.11658164780735752,0.5054026043925539,26,26,68,66,0
0.0011103801479234146,0.004233894613384259,0.11456745262839574,0.4691781138036942,22,22,70,64,0
0.0010635645832933647,0.004159937107750977,0.10796037442814628,0.44178754065870207,24,20,61,68,0
0.001071195530389741,0.004361108902320391,0.10920048473966787,0.4379758690685311,22,22,54,56,0
0.0009861463454410681,0.003737540321294795,0.1016741698686952,0.39126868339422904,22,28,58,65,0
0.0009288376826900123,0.004116187182659453,0.09644406363631575,0.4160695327455018,20,24,59,61,0
0.0008696141057533813,0.003922411121500946,0.09003624956310424,0.4078603293819567,19,28,68,56,0
0.0008651992162255601,0.0034732924218984253,0.08296380094381235,0.4093519131883287,22,28,58,60,0
0.0008549730014352075,0.003573806451610585,0.08465860381329324,0.4140234532884936,23,31,59,62,0
0.0008645326643416567,0.004392181889281593,0.09230426886449603,0.465863287171841,24,24,60,58,0
0.0009178758686240195,0.004624342017214393,0.09412905297848544,0.49339880597123353,27,26,59,55,0
0.0008219186141870427,0.0047667033350283095,0.09389031109073646,0.49718124630453353,26,22,66,53,0
0.0008346976196242312,0.004486667236254005,0.09088534116403814,0.4958278403214555,21,24,61,59,0
0.0008138835841318163,0.00448240864231736,0.0845732435206263,0.461855020846913,22,24,56,58,0
0.0007339848026139812,0.0036938445903745144,0.08136231841969702,0.41560516313354195,26,24,54,61,0
0.0008370185375188338,0.0034702796096829198,0.08749934351864296,0.398525562524943,26,26,54,60,0
0.0007109238804151264,0.0036055446073482533,0.08224968547661402,0.4087946324349603,28,26,60,47,0
0.0009038805854858331,0.00336383224386449,0.09227627155267225,0.40208893557932457,18,24,62,52,0
0.0009137303859886979,0.004344812644773091,0.09871764638072934,0.45484774930013494,24,18,55,53,0
0.0009377528239203927,0.0040772910201428885,0.10331393985492257,0.4571007124067799,26,24,58,57,0
0.0010118938343945515,0.00422605026328381,0.10147347995816408,0.4544780105981401,24,18,48,56,0
0.0010475264093325438,0.0049076477231760444,0.10317651047550673,0.49194218389245914,20,20,44,57,0
0.0009604027590553939,0.004673375247210073,0.09223895032844805,0.4331876326200403,18,18,50,55,0
0.0007972011515146958,0.004197220739624032,0.08077625840912961,0.4081580166491694,24,16,50,56,0
0.0008567119836398164,0.003926628414486159,0.08232522422887467,0.37108134639368545,20,18,56,57,0
0.0006921708384794023,0.0027553607103509444,0.07474787360119108,0.2828952388636124,24,22,63,63,0
0.0007215763888203925,0.0027572224570432857,0.0770817036182349,0.3079160756817756,24,26,67,62,0
0.0006699151616714465,0.0029929349270960692,0.06982557399324298,0.31639733870131387,22,22,67,53,0
0.0006747740032656793,0.003164280241596048,0.07314808009543022,0.3167292610167257,30,20,61,52,0
0.000765987437067205,0.0033891339551222854,0.07296281262469446,0.33197068225499005,20,20,55,54,0
0.0007303583491746504,0.003278222577681935,0.07488155338742268,0.33044468464683485,22,22,58,51,0
0.0007580936511933831,0.0035203425678667173,0.07759706999409573,0.3366882507011294,20,24,63,55,0
0.0006722637169081308,0.0031004675856502197,0.07067970046650482,0.3184309009720267,18,24,64,51,0
0.0006102047148938712,0.0032827690257987824,0.06767150869903071,0.28975127411832413,28,16,68,57,0
0.000561282928107056,0.002633586772116353,0.06487681746565431,0.23977803627305452,32,20,65,65,0
0.0005930129958371149,0.0028716557371651864,0.0686833599258004,0.2628274004964437,32,18,65,51,0
0.0007092835419744353,0.003410832876548543,0.07802102492045548,0.34099593656913973,28,22,71,50,0
0.0008688277231663536,0.0036318884172826475,0.09175493155984342,0.40633228832197654,22,24,66,46,0
0.0010357262840274394,0.004302546812973843,0.10265231212714813,0.48399132607537265,18,24,65,45,0
0.0012194622560971636,0.004214221790166857,0.11024704642367249,0.4872889864746081,16,20,64,58,0
0.0013065920437819328,0.004415150519830139,0.11257184770375167,0.480355615364384,18,22,50,56,0
0.0010594497263610404,0.005035487759188667,0.09943004436379499,0.5004037732365588,24,20,58,48,0
0.0009498812445579787,0.005118637775118572,0.10198933690615374,0.5119406215024109,24,22,55,45,0
0.0008079920920393759,0.004795162344246723,0.09266508301816888,0.46381522200115427,26,18,51,45,0
0.0007677231174307113,0.004032902963008771,0.0884785048288965,0.4396618618208468,26,22,59,55,0
0.0009966609939602747,0.0024253329673707812,0.10290056595457081,0.2464658297020266,18,20,74,65,1
0.0011473102274547043,0.002713608523624463,0.1127626466500346,0.2709153922984933,20,20,63,59,1
0.001205146488399925,0.0026626724179224415,0.11919082582716523,0.29308504782650335,18,24,59,50,1
0.0013625069347522442,0.002947773228797015,0.13276791795769524,0.31861707184760135,20,22,56,53,1
0.0012760444783495425,0.0027924982051926645,0.12735459271888647,0.30512329142912686,26,24,57,51,1
0.001214834285901004,0.0027396518325600154,0.12627490158143914,0.31061693753689074,20,28,59,61,1
0.0012967165153094352,0.002798550303791626,0.12834164081895483,0.3163610207126586,18,28,62,56,1
0.0010380723660495877,0.002606749036391007,0.1136443985221234,0.28376163207847677,16,22,72,54,1
0.0010093203237839592,0.0024776350991744353,0.12031174793508637,0.2538177856767613,22,22,71,61,1
0.0009640846792364825,0.0022569136068458034,0.11171745382015312,0.24241183430480878,26,20,71,61,1
0.001049582242428274,0.002204986618953712,0.11474183264544015,0.21960193160682234,36,16,76,61,1
0.001126567091650369,0.0021571434661330517,0.11487499646545095,0.2248739945872846,26,20,69,58,1
0.001071262171518154,0.0023926514289375226,0.1022646506877693,0.24038322127244305,26,20,70,51,1
0.0011108890392637766,0.002556236794963822,0.10130235021468444,0.2489018682282371,18,22,68,48,1
0.0009270820653906436,0.0030764080731566523,0.09361058327041015,0.27842236567809636,22,24,64,46,1
0.0008294386146875313,0.00310655117528088,0.09437929949471907,0.28364102177515493,22,16,68,50,1
0.0009362971823194141,0.003538996568904355,0.10064381641434922,0.3039503208752355,24,18,70,54,1
0.0010261136348285013,0.003445601933356137,0.11510142949397602,0.3022278917627717,18,18,73,54,1
0.0011071813260508977,0.0026679352429048015,0.11484093825297559,0.2542307373764155,22,16,71,56,1
0.0011829787238293926,0.0027100396803673306,0.10906884053954842,0.2615790016756693,20,20,66,55,1
0.0010351999285489889,0.0023802420086470473,0.10830416800455415,0.25240573143774536,18,20,71,53,1
0.0008137781983454767,0.0022690859286941083,0.09128170238690911,0.25597174993233757,26,24,67,55,1
0.0007352735861711946,0.0026633229070663167,0.08465425063219621,0.2815127641268388,28,18,76,49,1
0.0007023504902287061,0.002526063951605246,0.08565638945838414,0.263686620377488,30,20,80,49,1
0.0008494795057349825,0.0024655845765912403,0.08799042808601963,0.23784826442075796,24,18,72,50,1
0.0008195394806509632,0.002058305285673115,0.08908483902451282,0.19712695582771106,28,24,68,56,1
0.0008196589103183366,0.0021407039973725607,0.08932570079948624,0.19352783802841161,18,22,74,58,1
0.0009273204833297773,0.002170139577827313,0.08700671408590292,0.19613744059039384,20,24,76,60,1
0.0008824126931175236,0.0022041306917355325,0.08218738552041319,0.19050690645951557,16,22,74,62,1
0.0008423411629261546,0.002005987667134039,0.08351890672052631,0.19492847579792608,16,26,71,63,1
0.0010027625650650114,0.002390207001380032,0.09483958669248901,0.2188408655488039,20,28,65,61,1
0.0009794292298851378,0.002437165262945496,0.10758244991841243,0.23374147877025894,26,24,61,56,1
0.0010441504788234273,0.0023152107352315556,0.12182674651974201,0.2323335544628423,24,20,61,55,1
0.0011257869000603203,0.002466653225992277,0.12579188068078692,0.2505569446550229,24,26,56,58,1
0.0013309991633564933,0.0029198856682041874,0.12451604466621873,0.22715561777322346,24,20,55,62,1
0.001289749139947827,0.0032234080038411024,0.12169835265375314,0.254281202123679,18,24,60,49,1
0.001187719210490264,0.0034409345967694837,0.10222628227297086,0.2580503912573007,18,22,63,41,1
0.001169169716103098,0.0037929453180587007,0.09958910024567919,0.2967083650320285,16,18,68,39,1
0.0010425340178417072,0.004246002916306887,0.09479922702026965,0.31018075118946203,26,16,67,38,1
0.0008975238577263346,0.0032122085036636783,0.09788897710508618,0.3001315681718432,28,16,71,51,1
0.0010889234297251408,0.003178810639403755,0.11886136474377826,0.29123284406447364,27,14,68,58,1
0.0012313443603030902,0.0030175932001928448,0.1304617902956269,0.24861656574047628,20,14,67,57,1
0.0012543072183075713,0.002734076825125017,0.14488189048213965,0.23130287754258214,24,14,65,59,1
0.001243868487752268,0.003713649388616797,0.14682907439008144,0.2876467887893211,20,16,67,53,1
0.0010993497995017648,0.004159639001206205,0.13458150041233938,0.3265577049260544,24,16,70,49,1
0.0010962243406660288,0.0045688222000282155,0.13175337862149533,0.38593183708139567,18,14,68,53,1
0.0013710171019123577,0.004592937377463545,0.1508662382486654,0.4016731323092585,22,18,62,54,1
0.001449947193509258,0.0042383517783687406,0.15555040973389336,0.36138419735228744,24,16,62,53,1
0.0011972003450463164,0.0011747015663772342,0.13478408800607333,0.10036081295526182,24,20,64,62,2
0.0015391277978682833,0.0013816208663532102,0.1904319992488744,0.12937832794339454,28,20,64,65,2
0.0018690157713640567,0.0014460577788476994,0.22580896787495205,0.14567581025760648,30,20,66,66,2
0.002016313578925163,0.0014280806269155813,0.25360213149248284,0.15796729670315016,34,25,71,69,2
0.002172611100244298,0.001401580980885407,0.29599535946200045,0.15339929327700838,32,24,70,73,2
0.0020229561216256278,0.001337054104662367,0.28956415108653333,0.14956699784528285,32,23,74,73,2
0.002233029058834921,0.0011519395759034415,0.32321347515426385,0.14328072216174695,32,24,71,83,2
0.0021287886596405414,0.0011278831809636819,0.3379063464084372,0.13640535873759183,36,23,75,89,2
0.002066934342099202,0.0011296613797247813,0.3538179354687045,0.13586786222330544,38,26,77,85,2
0.002029567222798509,0.001056133495101087,0.35322687460621943,0.13447745913837914,40,32,77,87,2
0.0018669399923984915,0.001053304306969805,0.3176561561516551,0.1460500968454254,36,32,80,90,2
0.0017965528623301572,0.0010661072709472947,0.2945766857083626,0.14865301809756698,40,30,83,88,2
0.0016301863766288477,0.0009461029628622595,0.26111887876402173,0.147077413821119,38,32,81,84,2
0.0016704639120348216,0.001056843655844589,0.25959893010840346,0.1519732242773967,36,37,80,80,2
0.0015646275886334288,0.001009512324002057,0.25877892026929683,0.13803784619784149,36,32,85,82,2
0.0015448608848884935,0.0008991052003574082,0.2531466788058845,0.130805023725154,36,34,76,71,2
0.001514421284943828,0.0008998131145492041,0.23402342054590713,0.11554707015320717,34,24,83,74,2
0.0014545916926285664,0.0008512310142771414,0.22493000705775068,0.11820619216119971,40,22,76,71,2
0.0014948260083689718,0.0009056831269833816,0.21899950393028034,0.11403267814336401,38,28,78,71,2
0.0013391896425936586,0.0008304325663439045,0.20454890533502987,0.115026764537291,32,29,80,77,2
0.0012840215438837588,0.0010087214917131337,0.20062131243509412,0.1152718257993346,34,24,82,75,2
0.0012784751819334562,0.0009821159857508997,0.20433558155466283,0.10683969768257061,38,29,84,76,2
0.0011898760921187001,0.000861595506674601,0.17904338466623143,0.10153768691114146,40,24,77,78,2
0.0011994208992369383,0.0008913466562967513,0.19458103407552443,0.10750602102787618,36,35,78,77,2
0.0012533575009903025,0.0009288909827953124,0.1900204819411836,0.10971022929986751,34,26,70,75,2
0.0014399517440542324,0.0008776597494413903,0.1943983248178114,0.10444623110396908,26,28,72,78,2
0.0012484431320151622,0.0007809372290080178,0.20153468063108163,0.09808264655861987,38,30,83,83,2
0.0013052897773271712,0.0008062394904313322,0.20099069253553303,0.1019251008853779,34,30,88,87,2
0.0013617748509364743,0.0008539319947751155,0.20282161453023476,0.10736973143852799,26,30,92,86,2
0.001256704495370798,0.0007451327285669989,0.1904132005253524,0.10001258851896869,26,34,84,87,2
0.0012847657490067223,0.0008283774343940229,0.20007176072394817,0.10943706267241392,30,30,83,83,2
0.0011961933827511232,0.0012120192003609684,0.19217041124167236,0.1169271698955325,30,17,83,74,2
0.0011822736102842014,0.0010925017951491304,0.1953253019834515,0.11541654486649466,34,16,83,69,2
0.0011007699192798245,0.0011397645810910346,0.1845467010141757,0.1185184983739464,40,18,83,67,2
0.0011122905678736977,0.001109864271864687,0.17440254011191192,0.12039903005131262,36,14,83,70,2
0.0011707650477612676,0.0007642002017104921,0.17891400320984577,0.10365894317246499,40,28,85,74,2
0.0010981118081650441,0.0007129560375737827,0.16941590867639525,0.09931685600391195,36,36,85,80,2
0.0012036161118355929,0.0007212003870250055,0.18103625779201268,0.1038427965374511,36,36,82,75,2
0.0012955029761523035,0.0007970937599033566,0.1841595044992731,0.10398188754174054,34,34,75,79,2
0.0014765868922458822,0.001024362287923822,0.17411268569889696,0.10393086037029979,28,24,71,69,2
0.0017017228326007491,0.0010936854943742276,0.19644867621604814,0.10002979376717998,24,26,62,64,2
0.0018557357729212533,0.0009839580879138223,0.2206938195489657,0.0883007676959209,22,22,62,62,2
0.0018803215586481808,0.000905924849959462,0.24921774839559377,0.09266880740693227,28,20,61,72,2
0.0019776992614783766,0.0010733827162510707,0.28107446090331883,0.12337366766974472,34,22,65,68,2
0.0019828961180580885,0.001305808598459618,0.3033448357895414,0.14279860113328746,36,28,75,73,2
0.002041987133483112,0.0016851676204785893,0.2875339507867325,0.17618946023407578,30,18,83,66,2
0.0019291250922383034,0.0016410526720054231,0.281378892277902,0.18130266708542947,30,20,80,67,2
0.001894274241033719,0.0014914563125971976,0.2903552305096175,0.17428357338299139,32,22,77,72,2
0.00012141213423100665,0.0004166415854335731,0.00982512186289673,0.02431430369874782,22,18,40,34,3
0.00012196535718340268,0.0004085263856648249,0.009849253352254082,0.02544172767804338,24,20,44,34,3
0.00012754211704570832,0.00041805819343893524,0.009568095906785088,0.0266058927051315,20,18,42,36,3
0.00012833330667216,0.0004222802496133863,0.009657879078501271,0.02652202871013987,24,20,44,36,3
0.00012538013950986018,0.00040783487868895025,0.009128450475451012,0.025756037684007832,18,18,42,38,3
0.00012571218896490283,0.0004053344748197225,0.009242782774849191,0.02575820956423297,16,20,44,38,3
0.00024028826139258795,0.0017872573860205259,0.021169619515782688,0.11440862498792373,14,4,37,23,3
0.0005853202667619182,0.0036021876994923696,0.04630509411712019,0.29283731304477134,8,8,32,27,3
0.0008576110635715758,0.00650423729378266,0.060345499798810744,0.5080124390536636,13,12,31,29,3
0.001061178791210717,0.007248697219926832,0.08024810744397083,0.610865039180263,16,14,36,34,3
0.001069289888575565,0.008712523967868816,0.08757280241651136,0.7040739083838976,18,14,50,45,3
0.0015829675079522502,0.009368511769729013,0.12720657803032623,0.8641835640713627,14,18,47,47,3
0.0014547032063616469,0.007785225957193772,0.15599699749495963,0.9209733129537373,18,30,56,57,3
0.0018720424451417444,0.00920598987410678,0.19541052720397656,1.111435203573684,22,28,58,64,3
0.0022478581945639953,0.009936693356850927,0.23618451778552124,1.1928469331549487,24,24,48,58,3
0.0021439212380440836,0.008575274857968454,0.2239821235207368,1.105720092036591,24,28,49,61,3
0.0021801776424506883,0.00890006967386116,0.2219412469342841,1.1174011383739875,24,22,46,56,3
0.002151490753039786,0.008624730302193285,0.225031613840529,1.1120393927412104,22,26,45,57,3
0.0019462932674157354,0.007491117961078934,0.20504791646823523,1.0233392464027844,26,28,46,64,3
0.0017612165846199984,0.007026185221131969,0.18340910107330244,0.974299202753794,26,32,49,63,3
0.001659181255607774,0.006687966217057589,0.17568385359668606,0.9098790885572948,22,30,47,61,3
0.0015660967488168459,0.005831197019308385,0.16138431391541408,0.8070570326750921,26,34,52,64,3
0.0014081563019170964,0.005669003096485269,0.15451363643672755,0.7566862397649623,32,34,56,66,3
0.0016448832409616157,0.005880879313944978,0.16827738707282755,0.742133713946504,24,30,60,61,3
0.0014197447005698477,0.005092635841210428,0.15840168449612652,0.690056047287259,20,26,62,71,3
0.001168272095501761,0.004628773616170046,0.14333234195147312,0.6491575325737259,26,34,66,73,3
0.0012733138305997664,0.004542372137363689,0.14066324677131753,0.664961289983195,28,32,65,77,3
0.001302868533021574,0.004326785146364592,0.13735165889834705,0.6033657754924557,28,30,60,75,3
0.0012676316947884383,0.0038234946941505675,0.14094625415745057,0.5417746759130344,28,30,51,74,3
0.0012888368927363846,0.004338570338404167,0.14080303480753087,0.5841735319467696,32,26,50,69,3
0.0012298162345495776,0.0039306345234814246,0.1391894669753015,0.5583444255486517,30,26,51,66,3
0.0012407401316635689,0.004362665128047397,0.13564479835808585,0.5874775637498754,30,26,47,65,3
0.0012151526558836785,0.0046968085823146065,0.1383217709151483,0.635602738786018,24,30,57,68,3
0.0013890929173284198,0.004374083222836812,0.14583689544871412,0.5726050034779038,20,30,53,66,3
0.0014343703016223663,0.004217216374394328,0.14258579023310128,0.5585667402048827,20,30,60,69,3
0.001446316357125032,0.004362496903369485,0.14401833704711214,0.5884078924720981,16,30,61,66,3
0.0013742743904103518,0.003983009032398878,0.1394691399824781,0.5391814227809796,16,34,67,72,3
0.0013429810885258837,0.0038623340205594893,0.13602673747380054,0.557054725602086,20,38,71,78,3
0.0012217479583271156,0.004199816744822712,0.13730347227049883,0.580542408465044,22,32,63,73,3
0.001940879458206865,0.004164206099059844,0.15875848984176716,0.5102048013520033,18,26,62,68,3
0.0019419035739152819,0.004990252770971917,0.15098723094314542,0.5840066381315097,14,24,58,59,3
0.001878301872364854,0.005677982859632632,0.13528758145546887,0.5533542367273073,16,20,50,59,3
0.0012363470547247645,0.004809935437908789,0.09450850303920398,0.4754537337513912,22,20,41,59,3
0.0012003859000602418,0.004995540715540961,0.10046106318114659,0.5387518901818148,20,18,43,59,3
0.0011233943335816204,0.0038710503109568722,0.09796353781518742,0.4422392012832216,22,20,44,64,3
0.0009971464758303688,0.003720392741036089,0.10553825613263054,0.4653244022486656,24,22,45,63,3
0.001186002309553044,0.004802264729962015,0.12901167630547047,0.5953684056596226,22,20,49,61,3
0.001301995742425463,0.005615628194091854,0.13855170231662456,0.7154675891689243,26,26,48,58,3
0.00014808765468648713,0.0003584756243682456,0.00921176052806511,0.025929016366628213,19,20,38,30,4
0.0001495409911101484,0.0003312149021492167,0.009098521195841213,0.025210709314820834,18,22,38,42,4
0.00015782863044102056,0.00033775002009904883,0.009783534061622237,0.024957094184526386,19,18,40,34,4
0.00016111732237745986,0.0003364403329224455,0.00987546175990686,0.02577318696931506,16,20,40,34,4
0.0001611856618260304,0.0003421677951081183,0.009864485052412282,0.025743092942519894,15,20,40,40,4
0.00016704199842299637,0.00034306262567392027,0.010171724807544783,0.02487357292348909,16,22,36,38,4
0.00015454964602370087,0.0003463051532215823,0.009560769618376897,0.02448783537402244,19,18,35,34,4
0.00016593526119386564,0.00034714182804139313,0.009478927085734471,0.025138907874528087,20,18,36,28,4
0.00016282967141982755,0.00033285519466631633,0.009871134087146955,0.02476611622176474,19,21,39,46,4
0.00016573076821559417,0.00032708467277780477,0.009811551873956338,0.025198454867156078,18,20,42,40,4
0.00016655381718176307,0.00035227600550585624,0.009763120985139675,0.026560793514303745,21,23,36,40,4
0.00016426494929989118,0.0003540408898712089,0.00946804050051364,0.025802912555526674,18,20,35,36,4
0.00016620769202479557,0.00035547898335859085,0.009361849336591229,0.026087141472646555,19,23,30,40,4
0.00016660670782047977,0.0003754976820653065,0.009254256166662655,0.02628226372679741,18,18,32,40,4
0.00016722239891048499,0.0003621992500018162,0.009398607953678011,0.025865268970421705,16,21,34,36,4
0.00017270133740202395,0.00036706090247928916,0.009496503156426011,0.026251698644884518,16,20,30,34,4
0.00017047565826630497,0.00038823032957155184,0.009585430529071303,0.026014306931194154,18,23,37,32,4
0.0001720492769363929,0.00037953409636095427,0.009475023890070138,0.02580883435669926,18,18,32,26,4
0.00016989577283002454,0.0004098653400053955,0.009471936389934823,0.027395232724966967,16,21,34,30,4
0.0001712489187013735,0.00039222459821140944,0.00957974330092703,0.027087622471230487,18,18,38,36,4
0.00017287339943300846,0.0003963115580352021,0.009508585281727388,0.026686804613859975,16,21,33,34,4
0.00017045649569936248,0.00039578096623309504,0.009773011301454875,0.027538080202092172,18,18,31,39,4
0.0001697466186065664,0.0004258549643521547,0.009597916758623147,0.026984711070538295,16,21,27,38,4
0.0001727990677989999,0.00042599722972154366,0.009745375737456806,0.027563456062926945,18,18,30,35,4
0.00016796377490450661,0.00043392181999288586,0.009556395797008612,0.028089234851369792,16,17,31,36,4
0.00016931622848368136,0.0004278645284730457,0.00936376583439527,0.02711741106663362,18,18,36,36,4
0.00016854696386935667,0.00042840071817014657,0.00936336409180678,0.025914026017071403,18,21,26,40,4
0.0003058069321450241,0.0006698048562589562,0.017584185249255146,0.043303895743866554,14,18,33,29,4
0.00036044713890227403,0.0008162681108209476,0.023740069201078202,0.053432733497141394,16,18,40,28,4
0.000340696159005316,0.0008485943713839447,0.025136310045987622,0.06209572176908739,14,16,48,32,4
0.00025169992984958115,0.000860797242143505,0.023978897839604968,0.06481220040271612,14,18,58,37,4
0.00024035798796627337,0.0007272453141061983,0.023486469565759942,0.05818847470929339,16,16,56,39,4
0.00027370849199937505,0.0006534427944481947,0.023140134508637937,0.05263298504991413,16,17,62,40,4
0.0002665016993691972,0.0005035285133332816,0.021814690681121504,0.042947669267696914,14,20,60,48,4
0.0002692419887555003,0.0005131671575974866,0.0213502907390501,0.039947417596385454,17,17,59,52,4
0.0002575141579422168,0.0005092179553509758,0.021895101028704855,0.03741591254571023,16,18,58,48,4
0.00023556306685717853,0.000503350601732941,0.020699391698768343,0.03466882291644963,15,17,60,46,4
0.00026115563161841475,0.0005157486002132304,0.022532978155166795,0.03323197196414428,10,14,56,44,4
0.0002598498017633063,0.0004908233039449987,0.02266928077729206,0.032630497091351456,12,15,53,43,4
0.00029391298730396245,0.0005178751777983919,0.022872354642497185,0.03636756273547306,12,14,52,37,4
0.0002621227172222366,0.0005179828110860041,0.02255285689174522,0.03768954734994845,18,12,52,36,4
0.0002362258528142674,0.000546812223974576,0.0215695027561976,0.038015299747852414,14,14,52,39,4
0.00026039691229195767,0.0005437882300754926,0.02083536760387024,0.03762682052436668,11,16,52,41,4
0.0002505141149492497,0.0005127844514016075,0.023247851799803154,0.0332223776052402,20,14,50,41,4
0.0001978522716339956,0.0004632927612092695,0.020615593048457528,0.030978287831664644,22,14,52,45,4
0.00023146066177230743,0.00044763991887449716,0.020378856182469825,0.030253433408493565,16,18,52,43,4
0.00020991834889707523,0.0005004889474521247,0.02003843710855254,0.03281240080659701,20,16,61,45,4
0.00020619338408870962,0.0004677611492883854,0.01825417069520403,0.030802579454576404,18,18,66,47,4
0.0006799999030622337,0.003691930961346842,0.06424077445361431,0.3498766256122035,24,20,60,54,0
0.0007141021008246902,0.0033373351736534994,0.06663806784874933,0.32543558903218556,20,16,60,54,0
0.0008154735080046806,0.003130340642862059,0.06988892717814241,0.29278299491696086,18,22,52,50,0
0.0007813928212669471,0.0029906207745529984,0.06738366846575614,0.2818873025729707,26,20,61,56,0
0.0008842249728142999,0.0027138525443794574,0.06879481735445346,0.25077888317189495,18,20,61,66,0
0.0007599048737109204,0.0029075267283784857,0.06746272942036087,0.2636397763633378,20,14,63,51,0
0.0007747626257315302,0.0028823556173899582,0.0719188176455744,0.26195014137329903,18,18,54,62,0
0.0008701571162282286,0.0028226542742085525,0.07424182065942801,0.26130407290836644,18,16,55,61,0
0.0008744226745246106,0.002826954664411155,0.07641585811307715,0.2643653975959319,22,14,52,59,0
0.0015149041373245073,0.0034571796764200254,0.12085385570217429,0.34674844545133854,16,22,51,54,0
0.0016585390436243328,0.004344474132212192,0.13632859171184017,0.44394819342558073,14,20,50,48,0
0.0016671267793293301,0.004842064619722896,0.14951240172716743,0.5003507188956365,16,22,51,49,0
0.0019324297006245628,0.005573482586945343,0.1700099222587972,0.5549296182618709,20,24,49,47,0
0.0014985483115891474,0.0052235422001650315,0.12839239111567358,0.4935300859831622,20,22,50,54,0
0.001174264148718772,0.004148493055398212,0.11116431775039509,0.3942811297284327,22,22,59,65,0
0.001042597404879113,0.003980459666710422,0.0981173070409132,0.39047116745739235,18,22,63,66,0
0.0007029380300828768,0.0036022460151671487,0.07835843217695927,0.35035847507720475,20,18,69,71,0
0.0007254807861663965,0.0034653834673220945,0.08184596448357807,0.3380012833947578,22,18,71,66,0
0.0006676887327702299,0.0032305526963599045,0.07656521761336581,0.3511051300102907,24,20,70,64,0
0.0007235213455554074,0.003283484219223189,0.08231654819814628,0.33671872920217066,20,16,69,61,0
0.0008645685985233521,0.0036386380266128487,0.09006129787800181,0.3683014673485324,14,18,66,62,0
0.0009614831589675769,0.0038416726305387327,0.08917719389512402,0.3778116869265255,18,20,55,53,0
0.0010120290522865117,0.003934854510152929,0.09061936450111896,0.377054400547899,16,20,51,54,0
0.0009234104118690279,0.003504946793262466,0.08058724277891767,0.3458215730936029,16,20,50,59,0
0.0009215907521621623,0.004446170316933894,0.08137778770350859,0.38230721750114677,16,14,54,50,0
0.0011920473394706123,0.005157940104322289,0.09698680945274456,0.42037929617406133,16,14,48,47,0
0.0012557067297551375,0.005661568205947098,0.10029366958882714,0.4584543637569192,12,12,50,41,0
0.0016165903756400668,0.0062218595655474255,0.11974190192210374,0.5010494026304321,10,10,45,39,0
0.0013618309261073647,0.005208652847422098,0.11114915546185104,0.4457854315453608,10,10,49,44,0
0.001012418988685037,0.00391777476306431,0.08382304391585468,0.3470879632901681,10,10,54,50,0
0.0008515118317810754,0.00360259540821595,0.07507472833163026,0.2949997231668426,14,14,54,55,0
0.0006399226752521706,0.0022473600677936235,0.05596647827398459,0.21487277047968864,14,22,60,62,0
0.00042475916344004,0.0020330142688371427,0.04822785553736807,0.23488305472893953,32,24,67,65,0
0.0005121726775180601,0.0024769825662694996,0.056508424254972316,0.2638913060065279,26,22,57,61,0
0.0005668085944014834,0.0029861067136317866,0.060119684895032006,0.29558878443300335,28,22,60,56,0
0.0006136321297774157,0.0028470129735031773,0.06508335322723478,0.31782229321151817,30,26,62,54,0
0.0006989547355768836,0.002981888902915556,0.06674137898917,0.3433796328022282,22,27,57,50,0
0.0007965320356159871,0.003220501313352806,0.06971986503154391,0.36651454065447325,18,24,60,53,0
0.0008056023046868664,0.0032252276034805925,0.07526393065691277,0.37829576277186205,22,24,59,52,0
0.0006963111135302742,0.0034536327244847538,0.06813219573580108,0.39805834207167545,18,26,60,47,0
0.0006923733072816656,0.003917378864313673,0.06746910017348208,0.41557341188128555,24,20,57,47,0
0.0007152621255771297,0.0038474671061971954,0.06936833660721453,0.4039165093906229,20,24,54,50,0
0.0006463432055938725,0.00367761922457144,0.06931881299648827,0.40997143312148565,18,22,59,52,0
0.0006875069132362821,0.004236179531725603,0.07949975630319897,0.4551934877793348,22,20,63,45,0
0.0006727355045884253,0.0037992386516235706,0.07783721763753039,0.4431848386883379,20,22,60,55,0
0.0006378250736307736,0.003986685693215963,0.0760972756142788,0.4593874032582098,26,26,60,50,0
0.0007631957820379827,0.0042060651225000354,0.08081262049069748,0.4494524752630783,28,24,57,52,0
0.0006467021021688851,0.00343346464984478,0.07039151380635114,0.3790177994728357,30,24,60,59,0
0.0006547665849596481,0.0037416022752611174,0.07141029319853566,0.37484825335666994,22,20,58,61,0
0.0010992767298462296,0.0027316815648994906,0.1212836210990334,0.2821691295913935,20,22,69,53,1
0.0011859782279581494,0.0030389586991262396,0.12033650345104568,0.28322872327797927,24,22,67,55,1
0.0010330032960430833,0.002941449148788605,0.11196960016101304,0.2880951140814688,28,18,62,54,1
0.0012457817135128426,0.003676061529933049,0.11608717053154176,0.33206548321025164,22,16,62,47,1
0.0013350191062447645,0.00380651417037607,0.123534906329769,0.3361579048990723,24,18,58,45,1
0.0013400313532096226,0.004025749733463719,0.13130740665730725,0.35503247031865304,24,18,60,42,1
0.0013512914591855532,0.00352891364822321,0.13734609267679107,0.34356754966115094,28,20,65,44,1
0.0011916870080747835,0.003377513970325369,0.13127437358002247,0.33258574472179736,32,24,69,52,1
0.0012881683708777319,0.003453093199477353,0.1336479745780275,0.34685920571227985,24,20,64,50,1
0.0011273592867837804,0.003214446978537579,0.11061740248243944,0.2930190295145927,24,18,59,43,1
0.0009958848716428146,0.0027498317990926487,0.09881333778740033,0.24164424430530387,22,20,63,54,1
0.001051891498596421,0.001954593558862105,0.09361743988792057,0.1777512741504214,22,18,60,49,1
0.0008774024044545281,0.001366727204113298,0.08810597924705067,0.11721546874277228,22,17,62,58,1
0.0012511673320376926,0.001585284246429176,0.12181573279209858,0.1571715795150717,30,18,65,57,1
0.0014304571262857254,0.0020769402099310775,0.13947995875617059,0.19866754661108565,26,20,56,53,1
0.0016916700481451336,0.0024634248325175394,0.162207452845307,0.24662249529387,22,22,52,53,1
0.0018795755797661056,0.0023777967158454044,0.18163199889277828,0.2558575021196436,28,26,51,57,1
0.0016893000699976426,0.0024106751765253166,0.17966929740395815,0.2476861361280063,28,24,52,59,1
0.0017946512386841458,0.0025953855806248104,0.18258193058214311,0.2587774431710442,26,24,52,60,1
0.001671181626766676,0.002617978715589908,0.17678432902729574,0.2643534897773651,28,24,52,55,1
0.0016133708104435506,0.002700450326642538,0.16336116826359817,0.2648064962208655,26,26,57,54,1
0.0014739512604247363,0.0033336802045763237,0.1566071822185689,0.2804363894049049,26,14,59,56,1
0.0013732899140012009,0.0026567170245537118,0.14758755572823418,0.26522055637081454,32,22,53,51,1
0.0012862105996615197,0.0031956821854650435,0.1293208777207302,0.3099437147314772,26,14,59,49,1
0.0012803373386179012,0.003189084116981737,0.12467331416642337,0.295328543911918,26,16,57,50,1
0.001316229974292296,0.0038259283885861343,0.13150980494230508,0.35342696925093003,16,18,54,52,1
0.0014156702720551184,0.0036635935637682076,0.14127229124598595,0.3664580510650989,16,16,59,43,1
0.0014871747823219062,0.0027814415654104714,0.14859098226398632,0.33511886214291575,18,20,61,48,1
0.001442566306230158,0.0029229030024713015,0.1441688455208715,0.3059923770639707,18,24,66,51,1
0.0013249850192662285,0.002498067733773438,0.12407227443138395,0.23188582899567417,18,16,69,44,1
0.0010768010562278592,0.002284297694384063,0.10333459810417618,0.202368426143826,24,18,66,48,1
0.00103722970192085,0.002512041322772968,0.09383545454724411,0.19075521205388887,22,14,67,49,1
0.0010628469888139802,0.0028890186852957214,0.08974352753194831,0.21466271538797288,18,14,66,50,1
0.0008921741608358541,0.0031605211817049878,0.08620965964048702,0.26738249858619445,21,16,61,49,1
0.0009667060125297723,0.0031236244763409925,0.08789688312636428,0.2922904313420098,22,18,59,43,1
0.0010502760690831612,0.002953741251285536,0.10002915806019697,0.29345066091082894,18,20,60,49,1
0.0010257235390240486,0.0027102208567578623,0.09593388624971773,0.2773623011076285,16,22,70,51,1
0.001269569033492643,0.0024808449997785133,0.11364450716720721,0.244428084531437,16,18,61,56,1
0.0010227610634361173,0.0022577311290849496,0.11614648066575818,0.22467832232113116,20,22,67,54,1
0.0011643097400525092,0.0021674513351838177,0.10998039868298276,0.2152731259247907,20,22,76,53,1
0.0011829502753026777,0.0020855060377364247,0.11247268566737906,0.21680518963831752,26,28,65,59,1
0.0009514030579411355,0.0020199625847894948,0.0955559057829208,0.21802795140527748,24,24,69,52,1
0.0009330760292651301,0.0020257367909877768,0.09529945934937768,0.20635785228539535,22,24,64,50,1
0.0010164541158043212,0.001980618258110102,0.09755799021563662,0.2046780090386245,22,24,62,52,1
0.0010201461333526952,0.002081839868169103,0.1042001690475366,0.21436213869230444,20,22,58,47,1
0.0012569355872406732,0.002278995425926022,0.11619666325415584,0.2383520699620513,22,24,43,46,1
0.001286286990839547,0.002588529333690561,0.11785265430126463,0.25278426214180844,14,20,45,46,1
0.0013397140271195214,0.002333757629118665,0.12419517332504769,0.24280609483030768,18,22,42,47,1
0.0012846778533273301,0.0025729762744518842,0.12408534500661947,0.25298010487374384,20,24,47,51,1
0.001369609688314193,0.0007637200796010513,0.21139160517329,0.0930600021322188,34,28,65,73,2
0.0012784339634537365,0.0008113960900161605,0.19682676163673088,0.09499747045722254,38,35,75,71,2
0.0011549680282456893,0.0007642472247931242,0.18987065248807475,0.09060684617475658,36,28,80,65,2
0.0010696571027321983,0.0007533811757216158,0.1843900790673131,0.08609049301039749,38,21,79,65,2
0.001111216835526205,0.0007519832092680544,0.17924357329517773,0.08212803891441453,36,18,83,69,2
0.00116272211626305,0.0006374372692023732,0.19391363474288695,0.0774164894303164,38,19,76,75,2
0.001185848478881591,0.0007349835098671574,0.19831279799668486,0.07700575088523383,40,16,76,76,2
0.0012188936237358763,0.000639833666489304,0.19692989247965054,0.07625026650423909,34,31,76,81,2
0.0012737536899270813,0.0007297878626588107,0.20117023770942546,0.07929488667508208,34,26,77,76,2
0.001692673063506171,0.0010623376630316242,0.25519677837954136,0.11240637372420222,26,24,81,72,2
0.0019531655237154818,0.0013394980542486678,0.30445240374889887,0.1340995088048662,38,22,80,59,2
0.002223141105495248,0.0013994132292877647,0.3435226894004599,0.14583417513762864,34,24,85,66,2
0.002133464656425688,0.0012150884846637753,0.3506754783099358,0.15056890882650759,32,24,81,72,2
0.0021323976487729237,0.00126893466497864,0.32281136217414524,0.14087804290945877,30,16,80,78,2
0.002023906473872354,0.001191794866241486,0.3018747605242448,0.14850913291152187,32,22,81,72,2
0.0017500074138036778,0.0010772470733841685,0.2782817980388947,0.1398816020401493,32,20,80,75,2
0.0018720251944993876,0.0011391499320218999,0.2750335841806915,0.14109161728727349,38,21,82,80,2
0.0017598652958251263,0.0012445478968071823,0.2707832573944912,0.1515960259734109,32,20,74,85,2
0.0016419719293948322,0.0012194036555666899,0.241715569326609,0.1520220048932362,34,20,69,78,2
0.0015892729690123201,0.0013243234654590375,0.24135445877576878,0.14798927726314226,32,24,69,74,2
0.0016713493483297267,0.0013544986397888892,0.24044758123624774,0.14346782338993538,34,29,64,75,2
0.0015698217514856425,0.001334419618916897,0.2303452723173019,0.12888598715745886,28,20,71,80,2
0.001491608158523794,0.0011800314545614107,0.22400891575249915,0.1251805142275841,32,25,80,75,2
0.0014161551539635206,0.0009893803851232015,0.2159651806409466,0.12065547270140026,28,32,78,75,2
0.0013186176186345446,0.0009696090859796993,0.19885366829248047,0.11623849037666587,34,33,71,77,2
0.0013005460634386487,0.0008964719424605719,0.1993934942873289,0.11066970253281945,36,26,77,79,2
0.0013321039432187326,0.0009616648625353496,0.20769847603781386,0.10982698592345315,28,23,82,85,2
0.0014639163304775785,0.000988242990279708,0.21604857640375943,0.12368027076947653,30,20,83,83,2
0.001510964017674769,0.001083034695924854,0.22277559908595299,0.12554473105746564,30,23,89,86,2
0.0015539737428714418,0.001265834028836033,0.22078997873233958,0.13913736942308244,30,18,94,73,2
0.0015436793038830937,0.0012460222883150481,0.23243127432511063,0.14530278784060674,36,21,90,78,2
0.0015273616746595828,0.001120719825376852,0.23026703163472093,0.141266553421633,40,24,95,79,2
0.0019634414383989055,0.0011916997852694949,0.2902670049482448,0.15625998267683905,32,26,89,74,2
0.0019357273726700605,0.0011633855770118422,0.28763939193282384,0.16574540019169634,34,28,81,74,2
0.002101625492290506,0.0011054473859665498,0.3016447617589491,0.1672569617661138,32,30,80,80,2
0.002203047357092331,0.0013404635968346386,0.30947066338707724,0.17254066586126138,34,26,82,73,2
0.0018926626405629038,0.0012320948517183954,0.2881060575269493,0.16672274474327364,44,30,77,77,2
0.002012608792601829,0.0011043546860038183,0.2991290451960007,0.14747501336467614,36,30,78,82,2
0.002082488974879314,0.001228301812140097,0.30902241334357305,0.14779283089616843,28,33,79,73,2
0.0025691231070354226,0.0012836679844200104,0.38429939859780876,0.15670967615927078,30,30,77,73,2
0.0027817337828707576,0.0012925953957683147,0.3994812886618255,0.15768849499034232,28,34,76,70,2
0.0030269582032280127,0.0016074627893004389,0.4307635626316232,0.1733946719205863,38,30,69,72,2
0.0028941090467787694,0.001399383594010088,0.4286172708435546,0.16697315637796958,40,22,68,70,2
0.002371980031096575,0.001268507739361142,0.3559291601584225,0.1610464055519918,36,30,75,72,2
0.0021842713919799426,0.0012056845824885603,0.33505745252372904,0.1565260153453135,34,26,75,77,2
0.002065976882539777,0.001224175760122153,0.3174697594843629,0.14898467184197742,32,26,78,82,2
0.002017849826478816,0.0012127533140715476,0.30185429948408415,0.1478120378266925,34,26,74,78,2
0.002153740823414362,0.0012712174945937735,0.311529118945761,0.14534930281476233,30,22,66,76,2
0.002073815045117477,0.0012686857333305721,0.2844216133272764,0.14401515225816428,26,26,73,75,2
0.0011103370057346789,0.004447474243190804,0.1080104820122391,0.4899112394933844,30,28,54,57,3
0.0010855245755327606,0.0042961554661517555,0.11102973940061105,0.4570739098226779,26,28,54,56,3
0.0011162022657249674,0.004635315099136321,0.11504371311526364,0.45212918839449184,26,24,50,57,3
0.0012037427578711227,0.004900939881442316,0.1277307179117107,0.4703735179564275,28,26,46,53,3
0.001163760375592353,0.004238026866138342,0.11457321800420053,0.43483267566068606,24,24,55,56,3
0.0013368619262777574,0.004899321564383583,0.123570750434625,0.4834148068139655,20,22,54,51,3
0.0012913885272031473,0.0043920940492781935,0.11424432882919716,0.4632011236231914,14,26,62,55,3
0.0011200561266294614,0.004322395892491773,0.10397004290791859,0.43937631189658594,14,30,64,51,3
0.0012169731321633953,0.004271524302495223,0.10446227349829237,0.43195292320125883,12,18,56,61,3
0.0010696250719110635,0.004628712226690212,0.10620892506055689,0.47691138470086464,20,24,64,62,3
0.00123437415188433,0.005028118135414149,0.11334277995336048,0.5564961167652701,24,18,59,64,3
0.0011955595502815015,0.005898686552473299,0.11590545718378296,0.6423083110747172,22,22,54,66,3
0.001186000521436227,0.007398671870116424,0.12765043750143898,0.8022724225296527,24,24,51,64,3
0.001339954920333334,0.007693036273178529,0.1499856279531943,0.912302273509611,22,26,50,57,3
0.0015935687618626327,0.0084243506188219,0.1698751447268955,0.9872651357118135,24,24,55,56,3
0.0016196381535743916,0.008357748493683113,0.1873226217536312,1.0717092787089286,28,26,54,58,3
0.0015328503612084274,0.008160143792823085,0.18516454970014964,1.0953478664327172,30,28,54,60,3
0.001327737851318566,0.007773194666608984,0.1743696906314246,1.0592905210703143,34,32,59,61,3
0.0012927027369501486,0.00665167370397218,0.17308707567637155,0.9745980725925242,30,28,60,62,3
0.001316893378735391,0.006516119521511952,0.15744075519816594,0.8856265587644925,26,28,54,56,3
0.001302682914003222,0.006297914269127137,0.16005140487359465,0.8304362612615072,28,32,54,58,3
0.0014180791314575428,0.006546373200453264,0.1548422154721937,0.8013372344827095,24,30,52,62,3
0.0013096886739206069,0.006454008488546009,0.14092345985972637,0.8291997921530004,24,26,48,64,3
0.0011812501103356477,0.005975939594180154,0.1367825950910498,0.7672464824424431,22,22,62,70,3
0.0010974288282972473,0.005211810173407419,0.13253155381179635,0.6952178854440813,30,26,64,68,3
0.001037944511055781,0.004569616693088519,0.13094673605458096,0.5893093249213482,28,26,74,72,3
0.000910992871924654,0.003592834350144185,0.1203194762466237,0.4494338518364082,30,30,79,79,3
0.0009401504204705138,0.0032286576825661757,0.11593772227977735,0.44164828456951083,26,30,71,74,3
0.0008385373965200823,0.003059795529843197,0.1039508178381127,0.4309114942810193,26,34,71,74,3
0.0009149837590541844,0.004091776802861868,0.1023652686959656,0.5492116342719755,26,26,67,65,3
0.0009811077289237082,0.004965493554039634,0.11390510545581368,0.6209937681460601,26,22,64,58,3
0.0010472664744647928,0.005119646994864061,0.11889844310202885,0.6632180614829005,24,26,66,60,3
0.0008927335032209566,0.004865295867776055,0.11544867428587997,0.6490979413558909,24,26,66,62,3
0.0009564573185213759,0.004064014228068962,0.11300664390242926,0.5720979540069909,24,32,62,62,3
0.0009197598103282179,0.0037731793581817085,0.1056990923286604,0.5493328539587755,22,30,59,65,3
0.0008015684196254969,0.003880736951407548,0.09561727839766647,0.535705265757246,26,27,65,61,3
0.0009226273656551796,0.00441801005781019,0.10268599539410728,0.5400577887868064,22,24,54,64,3
0.0009142234731701311,0.005066023559410647,0.10710709543767967,0.5838109148974449,28,26,61,61,3
0.0008528109177549892,0.005028367473010421,0.10945804314813225,0.6142849917092877,26,28,65,67,3
0.0009703366059213789,0.005147820418100344,0.11923148848931317,0.6556409316363758,28,26,68,71,3
0.0009508845220207859,0.005172370591739346,0.12857325685310877,0.7265790167782792,30,30,63,67,3
0.0009210034929155869,0.004927367002598062,0.12191058352193243,0.6916447556940442,28,34,61,70,3
0.001076228382293746,0.0058277942706401464,0.13110812860347992,0.7929033656723974,22,26,53,61,3
0.0012310592387154656,0.006079238627448465,0.13735620877640922,0.7624645349963913,26,24,46,55,3
0.0012727245003179618,0.006105265251563946,0.13432507663155197,0.7332092035543004,22,24,50,51,3
0.0014857043953292398,0.00684650866797541,0.15016522207823055,0.7628454321645084,24,24,45,51,3
0.0014358473075892042,0.00560444051756268,0.15556952252575323,0.6499783796147697,24,26,47,53,3
0.0013915180312244837,0.004692739206014013,0.14737610570351178,0.5832322919220069,22,24,50,58,3
0.0013780234850593693,0.00491258661682506,0.14450803229513964,0.6011254178211741,20,26,51,59,3
0.00019086057925818303,0.00047870555552748307,0.010876820694415236,0.031011174919711715,18,18,33,34,4
0.0001896795723451547,0.0004616502185107934,0.010520896868264927,0.03010906073782297,14,19,38,34,4
0.00018857958325895895,0.00047516929538888463,0.010723021034393326,0.029660612769100612,18,18,28,40,4
0.00018818877297451786,0.00045677084637882494,0.01041648258843008,0.030736168307405887,18,21,26,36,4
0.0001870849978965577,0.0004860890214959842,0.010544768300495702,0.030468653526631733,18,20,30,38,4
0.00018544728647996243,0.0004738639653934907,0.010401763687762092,0.030777418207091452,18,19,34,34,4
0.00018416603749954366,0.000488254090050457,0.010443765047648362,0.02940905414816599,18,18,36,32,4
0.00018133202322892584,0.00048776630634671226,0.010422130565086285,0.029471887413930024,16,17,32,28,4
0.00018746923358245186,0.0004809761637985384,0.010626844639161448,0.028996134979264662,20,18,38,34,4
0.0001821218732154433,0.0004648664484134754,0.010653945715283976,0.028805990496608504,16,16,26,32,4
0.0001892706516505481,0.00048763194583444975,0.011177726366109647,0.028023917582750597,18,18,30,38,4
0.00018766142547779147,0.00047667989984654014,0.011218715086760445,0.02810708901729194,24,18,32,37,4
0.00018649626212360141,0.0004883950006937165,0.011420499314575925,0.028432113209424265,18,18,34,33,4
0.00018668431704568295,0.000478786746400546,0.012076916367395099,0.02796595346920323,18,20,34,31,4
0.00018847916508249178,0.0004907946676910596,0.011957652048238412,0.029193174970894218,14,18,32,30,4
0.0001830011449350675,0.0005016677643387787,0.012379793518489293,0.029761564211352454,18,18,32,30,4
0.0001747370398377579,0.00047303843366983074,0.012579224707345103,0.02970788146005218,22,18,45,31,4
0.00016752046175333297,0.00048601910664474433,0.011732839901561112,0.03052878556468697,22,18,46,30,4
0.0003266020470516599,0.0007628648686968645,0.02225519835134741,0.05134267189060492,16,22,33,24,4
0.0007191792538043307,0.0008399193676734276,0.04387788658704436,0.059124336602179174,7,20,43,31,4
0.0006871592248529263,0.0007459449904782931,0.04245809943205459,0.05472752727726629,12,16,47,33,4
0.000649495934117842,0.0005440394298370963,0.03921703585513372,0.04077105555117729,6,18,58,42,4
0.0005880398676400789,0.0004948488976738077,0.03597976649148518,0.03831482399498174,6,22,77,45,4
0.00017699242746202297,0.0003817910059701067,0.015146556986817746,0.03058190594237251,19,14,66,37,4
0.000181879642724373,0.00038096619078791297,0.014859205725461712,0.031943090543935244,14,26,60,46,4
0.0001454657584188153,0.00038603250586367015,0.011884005254050277,0.032408625777296717,19,24,52,44,4
0.0001490642625988978,0.00041078445606868805,0.011529170771949444,0.03399596811769617,16,24,44,40,4
0.00015716983743992386,0.00038154237855138063,0.011219575674521726,0.03279900623339652,21,24,39,44,4
0.0001617304215723525,0.00038831218481644934,0.010635764718478768,0.030553544413196118,18,26,38,40,4
0.0001635869079240107,0.00039024426585817915,0.010577620555520315,0.03031561258448234,21,20,38,46,4
0.00015693958439180462,0.0003597196776877411,0.010314562968886066,0.0272374956986225,20,20,42,45,4
0.0001590636257114841,0.00035468893496186864,0.010173447088367924,0.02678899632675001,23,18,46,46,4
0.00015072783874237484,0.00034559036605554547,0.009718863279977693,0.026758242823470075,18,20,44,46,4
0.0001517906427981995,0.0003345161488222096,0.009466338987649465,0.026671535626743025,25,16,38,41,4
0.000153793771128212,0.0003490864730397225,0.009975399205589182,0.028992393207304686,20,20,39,40,4
0.00014914203515240998,0.0003379576151041396,0.009811302972198663,0.02835182514489765,19,20,36,42,4
0.00015501881629456155,0.0003387793017558959,0.010246709876483481,0.02867908908574025,20,20,40,37,4
0.00015945440510923656,0.00036533279439634206,0.01025478342533339,0.027896963408107947,21,20,40,38,4
0.00017104453559865204,0.00035929034646678957,0.010300706869730733,0.028027271012880318,14,18,35,34,4
0.00016556558126688177,0.00037795402231288413,0.010330632721934971,0.029701358210045253,19,22,34,35,4
0.00017504011954044436,0.000358763540083382,0.010126018586380018,0.028160551898115564,18,20,36,34,4
0.00017067792475202609,0.00034876046463833463,0.01032899254111505,0.02747989718287255,17,21,29,41,4
0.00017880775959766608,0.0003507554104983109,0.010377373382374114,0.026535739756785758,14,18,33,36,4
0.00017687995751438298,0.00036605139989641486,0.010193564192243687,0.02603523349880907,15,21,36,36,4
0.00018033492925591664,0.00037163776178923935,0.010330415146766345,0.02725216301407357,16,16,32,34,4
0.00017783886504540747,0.0003899323910363843,0.010607723553065064,0.02772877025310166,20,19,31,29,4
0.00017953239479026557,0.00040289055639340036,0.010764443641855801,0.029185562863097952,18,18,31,32,4
0.00018035802485173057,0.0004060747103768376,0.010610369949553122,0.02903970156318836,16,19,34,38,4
0.0001804676816180922,0.0003884718026771394,0.01058413012384746,0.028481375981194833,16,18,37,40,4
0.0007648524878415007,0.0037655716977908127,0.09173191211071788,0.44078586065568737,26,22,55,63,0
0.0007607156925354481,0.00399831674019974,0.09019576465095051,0.4514447871660985,24,22,57,61,0
0.0009617927344241861,0.004956681449201647,0.09435389211353601,0.49746696372442173,20,22,58,53,0
0.0009685836553582097,0.005257703859106682,0.09928317042763166,0.5098082437243672,18,20,52,50,0
0.000904222372955602,0.005055146857017919,0.09534449209499046,0.4961693352187007,20,20,55,50,0
0.0008339563124594083,0.003764919805176487,0.0864088827237682,0.4092246036844742,20,20,58,61,0
0.0008434769851483849,0.0032556522632605743,0.08064069776341141,0.39696170473478987,20,20,61,64,0
0.0007870150916740711,0.003176898880940407,0.07735715659374257,0.3725910008152831,24,18,57,62,0
0.0007523767360476342,0.003046400524089677,0.07230410854208831,0.336638456229761,22,22,58,64,0
0.0006781486080811281,0.00308284509829796,0.0669216105610058,0.3538176286609116,20,22,61,61,0
0.0006130589557520033,0.003184006392204362,0.06436911661696487,0.3630662864094408,18,24,71,57,0
0.0006314381901482545,0.00330236467904859,0.06179687266177255,0.35563628329093994,21,24,68,55,0
0.0007179090911785655,0.002864797834933868,0.06652740663181629,0.328646617426148,16,26,64,62,0
0.0007627166375949145,0.0031513402175197065,0.07178763721194655,0.3254359894148751,22,22,62,56,0
0.0007740807519495993,0.0033179041726404705,0.06972060561558055,0.31585458130174787,14,26,57,66,0
0.0006301777428393261,0.0031524435363187568,0.06874809627834859,0.32732284607222273,26,28,60,64,0
0.0006727023952540546,0.0036818949679566343,0.06745271493177873,0.3614604615437565,24,22,63,54,0
0.0006854974023382912,0.0036058318624689525,0.06594079099013654,0.38130792329955276,20,26,61,56,0
0.0007580746888815474,0.004159235489161367,0.07044757917118016,0.3975458600048415,20,22,54,53,0
0.0007454983966653559,0.004059641802421435,0.06795324172179514,0.40249626114513515,20,24,62,54,0
0.0006006219766392064,0.0036476377403398923,0.06253936095662659,0.38554709499622836,26,28,57,53,0
0.0006950660871106533,0.003664678361426603,0.06824861960807543,0.370977220653873,22,24,62,56,0
0.0007272850722853821,0.0036044355688369034,0.06621435050096498,0.3764016675479656,22,22,59,56,0
0.0007194485711612631,0.0035129378500773378,0.06764358912873242,0.35937078985741394,20,22,57,52,0
0.0015701994360962357,0.0037231086756511246,0.16096842472076167,0.35725815439143904,22,20,59,51,1
0.0014623417361833385,0.003256707285925473,0.1500152496886495,0.3374220035141482,28,20,59,52,1
0.0012072600387795234,0.0035999699376391883,0.1268667453417009,0.3384036705856137,26,22,76,46,1
0.0011470704204052957,0.0036071816312122163,0.11352682024960399,0.3299345385763521,24,22,72,50,1
0.0011788285281810209,0.0035021354016136373,0.12125782858178855,0.3096061975915671,22,22,73,57,1
0.0013021268814214794,0.003513722962149077,0.1308875422805947,0.3050307581027247,18,22,70,58,1
0.001378651027076793,0.0032378971380887093,0.14103695848005435,0.3157065151961674,26,20,62,60,1
0.0014614302589855204,0.0036057124237524074,0.14711302069162435,0.3298327453255571,22,20,61,58,1
0.0013496032908015601,0.0038834005687125362,0.13276639189667458,0.34729730769676476,20,20,62,57,1
0.0013836502809119692,0.004162844167727292,0.12181278310965696,0.35194744959506424,20,22,64,48,1
0.001067171375503501,0.0037658236043892905,0.10029625902183341,0.3241705874128209,16,20,62,51,1
0.0010711731810282305,0.003651776833706302,0.10568664578121104,0.32289992487046754,24,22,60,50,1
0.001278631491569384,0.0032521283638055694,0.1169210010776501,0.28618415392804425,22,20,59,54,1
0.001208565479743405,0.0032398417361510527,0.12007657462719457,0.2849611825574072,26,20,59,59,1
0.0014157372613910607,0.0030865512102763964,0.1375964409974653,0.2839229052423277,24,16,59,61,1
0.0011869559136628263,0.002760285314411258,0.12427816172271125,0.2626900416113987,24,20,60,55,1
0.0010786705154341172,0.0031705843189226623,0.11478860313557145,0.2864036130230728,24,16,61,56,1
0.0009833538444916502,0.0027775242463867894,0.10969455661172364,0.2805929571730774,28,22,69,58,1
0.0010679386007869044,0.002982208771527994,0.10541387644404254,0.29518752713720736,18,20,65,53,1
0.0010758797354455181,0.0035461686574735853,0.11532211629590851,0.35746841872604385,22,24,62,52,1
0.00107358340902924,0.003382147687878162,0.12306327351819184,0.3429082275791076,22,20,65,55,1
0.0010579909129056742,0.0033913891612690687,0.11844687398316059,0.34566717002134023,20,20,67,53,1
0.0011291541982345124,0.0033698963163315116,0.12338413953604836,0.34227288845540565,22,26,61,50,1
0.001227633608679257,0.002585263215187624,0.13230954381595963,0.265600676547306,20,24,63,57,1
0.0018474297664936204,0.0018309150925750139,0.2948677271435018,0.18908453213563858,34,16,73,68,2
0.0018154066250727354,0.0014096662790522413,0.31248631609017885,0.17896248118200478,34,24,74,79,2
0.0019209466703498618,0.0014587092855418624,0.32137164248492833,0.16961466911727158,28,18,73,77,2
0.001848095532862976,0.0014290962637508733,0.3110016214215424,0.16617349081781663,30,14,72,72,2
0.0018505202126489167,0.001192671301991335,0.2997195687362444,0.15397276371183674,36,26,76,71,2
0.0017213384957489811,0.0011840053855421257,0.3026342857589586,0.15117595014679278,40,30,71,62,2
0.0015169042871679404,0.0011124663228464094,0.2656324577043051,0.14386788078577487,36,32,80,71,2
0.0015301228300895597,0.0010718975643347118,0.2572532453210007,0.14223377583935318,40,30,89,76,2
0.001449792756145105,0.001079174543762794,0.2400749796582758,0.12617169109652396,42,24,89,84,2
0.001399097848495884,0.0008629465010420719,0.2380134191286592,0.11308728179462738,42,26,92,83,2
0.001410373318854236,0.0008561682030370915,0.24246690669587276,0.11725734673927794,36,32,91,82,2
0.0013363439700968705,0.0008596811398908223,0.24481373571904924,0.11195056257870462,44,30,83,83,2
0.0013862883357389686,0.000756588968129762,0.23944384488767187,0.1063748028131358,40,32,81,82,2
0.0012023305387809586,0.0007444220972844237,0.20481713873431595,0.10462921060178855,32,32,90,85,2
0.0012922466783343183,0.0007710441608351696,0.22049697712273447,0.0995823361005195,34,30,85,84,2
0.0012047609570267877,0.0007376865749650323,0.21108749158261964,0.10082559632640807,38,36,87,84,2
0.0011827266683008244,0.0007384371342819801,0.2237944220348424,0.1039089550924181,40,36,91,75,2
0.0015262369189320872,0.0007429184659242677,0.24151799611237962,0.10531892136073359,40,35,80,82,2
0.0013223785166093444,0.0007205040533931135,0.22308097609716032,0.10572346982558936,38,34,84,79,2
0.0013004572334084925,0.000752203198567023,0.22223644518461877,0.1054068224365258,36,30,89,79,2
0.0011986130240616158,0.0008483656140928002,0.19923860292098552,0.09913021729995024,38,32,92,84,2
0.0011734145570747013,0.0007351223130610981,0.193449310686929,0.09423154001094153,38,32,88,80,2
0.0012847998707651784,0.0008072655047184313,0.20160569880334256,0.09326219009470539,34,26,82,83,2
0.0013157101371256447,0.0007781288019278875,0.19728614136273898,0.09475795245618321,32,31,73,72,2
0.0013664905387052993,0.00664518617654105,0.1492812602560557,0.8428953622929823,24,26,49,62,3
0.0014168082284244082,0.007099053259772884,0.14869242110683006,0.8639165634969104,26,28,53,63,3
0.001302932078381269,0.00637612754069321,0.1406299785423373,0.8047446156901578,22,26,55,60,3
0.0014558265099509607,0.00653332448538674,0.14134718806141758,0.765033853920992,24,24,51,59,3
0.0013790776872884955,0.005497353824756766,0.13711373337012778,0.669689788854024,24,24,50,64,3
0.0013927984907773966,0.005570379224339223,0.13510271984821864,0.7075568176798235,28,24,50,65,3
0.001139933203495478,0.005178325757156953,0.11769060983769511,0.6877428622586864,26,30,56,62,3
0.0011098759932969848,0.005059258431954006,0.12163772490165488,0.6992955623883104,24,30,53,68,3
0.001240819444264337,0.005834674924382955,0.13490863305780673,0.7856925128734872,16,22,57,60,3
0.0014051741303163475,0.005093810668526162,0.13493685610905368,0.6622371894819469,20,20,52,59,3
0.001443144321049595,0.0048831707885657015,0.1478140151000248,0.6017486388545584,22,22,52,55,3
0.0013209524783641296,0.0044848306599698734,0.13553784559768278,0.5580520876918748,22,22,51,61,3
0.0011640990212342037,0.0037340968975011525,0.12807145544962384,0.4480347627753833,22,26,55,58,3
0.0011616787230916245,0.0036901108833457454,0.12114309288109698,0.46617491211440704,22,30,58,59,3
0.0011099460183944146,0.0037075647524968973,0.10679779180792477,0.4353331252178423,26,28,52,60,3
0.0011368280898368137,0.0032514586232258026,0.1085695103101432,0.4377646120416642,14,26,58,62,3
0.0010700893027914594,0.003249979008352359,0.09922627163362804,0.4291043623491258,20,22,62,69,3
0.0009946682494591684,0.003807764412812414,0.10167112040407443,0.4582485074693224,20,24,57,62,3
0.001234984050046606,0.004948020766358578,0.11563461079284379,0.5069467359252736,24,18,55,60,3
0.0011814447000849078,0.004192651151936023,0.11067282018536852,0.4636796098990789,22,24,54,63,3
0.0011907389164433175,0.004319550963438096,0.1069429203029015,0.5022552033747733,20,24,55,62,3
0.0013290569192417093,0.004421655632639642,0.11212012632126618,0.5067326704908676,22,24,53,60,3
0.0013003711941374223,0.004061597246544643,0.1039601680652357,0.49225070097213297,16,24,57,62,3
0.0012334878645371451,0.004284649156161473,0.10338599400843367,0.5000292354809833,24,28,61,55,3
0.00021037713229716984,0.0004730662887466075,0.018486186712317627,0.03145331743427498,22,16,69,48,4
0.00020388577867761355,0.0004771921016949257,0.018856880732430328,0.03371119122416427,20,18,65,55,4
0.0002155589178142005,0.0005263145559852582,0.019756001462385698,0.034323076760146724,22,20,64,47,4
0.00021463239705477876,0.0004751828800277052,0.02041551121453766,0.03417149470372483,20,20,61,52,4
0.00020347439969617954,0.00048120436501926427,0.020283104190315298,0.03323609951848343,24,18,60,48,4
0.00019720971699689214,0.00045300070745604953,0.020193997861827573,0.03292615909200531,18,18,59,42,4
0.00018721549290543735,0.00046521087087133254,0.019291601084451306,0.03141334612835549,24,16,54,47,4
0.00021943555987387578,0.0004340954852266597,0.019862765534652934,0.03136457643953642,24,18,55,42,4
0.0002087129219615357,0.0004349179462310355,0.019213200487910306,0.030687135734964174,22,20,58,49,4
0.00019263380027937103,0.0004379134313784566,0.018023906179291338,0.029704262488470697,20,20,52,48,4
0.00029936513293894637,0.0007236196871564883,0.023042571739528686,0.045054152828715076,16,18,49,49,4
0.00036508867577092355,0.000908993172197504,0.025867402563824193,0.05951805150792292,18,20,39,32,4
0.0004580169411485071,0.0009349168342390698,0.030798706963095872,0.0689361338993194,14,20,41,30,4
0.0004275919147938703,0.000832651752749205,0.027530745576766855,0.06505040466021117,14,16,44,38,4
0.00035531496579577085,0.0006797514551672715,0.023436996965247647,0.056308560969386745,10,18,43,37,4
0.00018296916809933052,0.0004781042034382548,0.011140377805252543,0.039086381784168386,18,17,39,50,4
0.0001851187498952189,0.00045828549671642863,0.011242986553964853,0.03719354996700709,18,22,31,45,4
0.00019812202895127856,0.00047176232235261723,0.010850850054110869,0.03391473102746352,16,21,30,37,4
0.00019713511813228502,0.0004400563899739708,0.01049150560870364,0.03304076341133099,16,26,33,42,4
0.00019513328619956524,0.0004527931702754313,0.010488068232434707,0.03197165048143395,16,23,34,42,4
0.0001937393802249581,0.0004769708403710485,0.010584794913154899,0.030397464352558225,18,20,26,34,4
0.0001927592274662869,0.00047851596416288397,0.010781336841514201,0.03156028881563875,16,19,22,34,4
0.00019276458446283138,0.0004488062341407088,0.011035628408882692,0.03206832034459925,18,18,26,35,4
0.00018862284405434215,0.0004598082884531154,0.010757137053557393,0.033001795692159115,18,21,28,30,4
