f1ch1,f1ch2,f2ch1,f2ch2,f3ch1,f3ch2,f4ch1,f4ch2,Category
0.00034617272779997323,0.0014304527628468749,0.04202682404954971,0.16869819811974007,22,24,56,65,0
0.0003899805799270249,0.0013359619670991931,0.046209241882907294,0.1715302467976166,23,24,55,69,0
0.000647198454653897,0.001518845078430623,0.06788597700109371,0.19565187706071469,14,26,48,64,0
0.0014239843356211946,0.0018008596869480897,0.11908938463095411,0.19948216102406285,12,22,45,59,0
0.0019032374740802927,0.0017194535674232262,0.17936634583482486,0.2101288861551096,12,20,50,53,0
0.002776542764452517,0.0021438278623267795,0.2567440891147618,0.22596979168959408,14,24,54,56,0
0.0031529392700084253,0.0021823282082306847,0.3129644594776202,0.24197574942456515,16,22,52,56,0
0.003791670138685558,0.002646066277022765,0.377648974897811,0.26270499548302667,18,24,50,61,0
0.0033092215959396277,0.0026369707982326213,0.3514549844234673,0.24782183246979064,14,20,58,62,0
0.0031164147195419213,0.0022809627967776765,0.3123490010942315,0.24917559141725742,14,20,55,68,0
0.0025192076913113865,0.002118318713340356,0.29954140997227197,0.22938238655576954,20,26,58,64,0
0.002094981398180247,0.002311767431182315,0.24526507601023728,0.23953395153471355,16,24,57,61,0
0.0022920451557306397,0.0024660464422697212,0.2615707519260278,0.24858842930637298,18,26,48,56,0
0.002738960502073061,0.002993425513508708,0.320854729338589,0.253444193664439,18,28,60,56,0
0.0027332949443054306,0.003162756521655666,0.32355625426442397,0.2513565237035188,18,20,55,51,0
0.002413846463592205,0.003048175166044585,0.29986873481373844,0.23703933282361717,18,18,57,54,0
0.0026811010329895533,0.0027921896289314642,0.31699164034457245,0.24773522163818434,16,16,55,55,0
0.0022645412394844515,0.0025142651274579608,0.25948361773244083,0.2629426833459892,20,22,53,63,0
0.0020584981944470216,0.0027332719121177314,0.2510193640118075,0.26752252627965106,18,28,54,66,0
0.0025482819024502316,0.0030226038038787917,0.30039872410321966,0.26250735068346304,20,18,54,72,0
0.0031323928130645956,0.0034277877403467937,0.37796250425290956,0.27355018618567123,20,18,57,63,0
0.0035772721344515894,0.003056523524113742,0.3950092226343568,0.24492995331013512,18,18,58,63,0
0.003267070382131867,0.003057573562880559,0.3955252947619992,0.2569333940896053,18,16,52,58,0
0.003145412745685217,0.002785009504054607,0.39700225677814394,0.2551299937684264,20,16,53,64,0
0.0022075338073294128,0.002617445386412044,0.30224481198922976,0.23398254073765848,20,22,56,67,0
0.0023308059716298794,0.002501225267527528,0.30347684907983963,0.24609827122804875,22,16,61,69,0
0.0023567561603072265,0.0021280115133769724,0.32255574104387885,0.22532324271189355,24,20,65,73,0
0.0023216477304781012,0.001810201637945683,0.29992189210483544,0.2109904948040928,22,30,61,78,0
0.0022227021288596894,0.0017395294598474495,0.2899581220620655,0.20057667898085133,22,26,60,78,0
0.002099992997488629,0.001745709604160669,0.27288371005911133,0.18876890681867425,24,24,64,74,0
0.0015895048157969134,0.0020386118750840075,0.21285604455404997,0.19625080030692252,24,20,66,69,0
0.002503599416612607,0.0023802606405728967,0.2672941085592201,0.2249305676978897,20,20,55,69,0
0.002502204673889149,0.0030134142497417154,0.3139303071328013,0.2711062705255983,18,18,55,59,0
0.002873481106654611,0.002976068355046411,0.3599143482405747,0.2875419704449065,16,14,52,60,0
0.0034912703434134924,0.002823956012336729,0.4208831926782329,0.3031661233910275,16,20,49,57,0
0.0033223716314433704,0.002941402076215109,0.39210452672374596,0.2954727552409228,20,22,52,62,0
0.003612536883297078,0.0027229116389839493,0.4200655407914461,0.2836525236560978,18,22,55,66,0
0.003710235463032144,0.0029591664845839125,0.4208855212534309,0.29714996174810965,20,20,55,65,0
0.0037744189088969845,0.0029949059469130167,0.45461167947272707,0.27712103236515856,22,20,59,62,0
0.0032555662211841657,0.0024557651611753096,0.37843377874209666,0.21795812177503046,18,16,45,55,0
0.00229206375054569,0.0018046815383997656,0.2639526028325086,0.15797574674573156,12,14,40,55,0
0.0014116157621054683,0.0013198983942787376,0.1684075384736695,0.10257766878873356,10,16,34,41,0
0.0002274610057787121,0.000756206060155905,0.017213481049005497,0.06304904896200993,16,18,42,52,0
0.0004394703401395482,0.0009462004525034494,0.040449008110274735,0.08013062237674834,9,20,60,55,0
0.0005733127557809761,0.001614652944243501,0.05722187178508472,0.14091793026985203,10,15,52,54,0
0.0007651925022890848,0.0013878962403840185,0.08250937605011303,0.1403587188173404,14,12,54,65,0
0.0007865485229731788,0.0018248784358865606,0.09229304512321941,0.17777279713141728,20,16,57,61,0
0.001640770753919643,0.0029110335988695828,0.16802395730776604,0.24869835965734624,14,12,48,54,0
0.0002513578434503415,0.0007836623291233255,0.020620291459723043,0.06570072588338903,24,20,36,48,1
0.00028724641718831905,0.0007952756319208262,0.024944474750091795,0.07050344761455732,19,20,43,50,1
0.00034033840229734635,0.0009395963326035632,0.033117331101891,0.08358797530078454,22,16,54,63,1
0.0003511382045299719,0.0010319483545672859,0.037807150148307496,0.09600075880884229,27,17,61,76,1
0.0004057370279773809,0.0008232877945602297,0.04049610807253984,0.08908775989111924,28,24,61,72,1
0.0003886531811702082,0.0009593560242970727,0.04451631306671596,0.10856416305676786,29,23,64,71,1
0.0004203906706840395,0.0010825072890486723,0.04707964433804535,0.11934913932320028,20,24,69,66,1
0.00042525083763753844,0.0010920571124881965,0.054809278941821464,0.13158827799991446,23,28,63,71,1
0.0005324387664576193,0.0011849414286981598,0.06559487220961654,0.14066505504346194,24,28,59,70,1
0.0005737004054056157,0.0010636150149861939,0.07626322802550238,0.1308299615396369,31,30,63,73,1
0.0006345437160796345,0.0011887705500697274,0.08149163364636336,0.14604893060903335,24,24,68,75,1
0.0006870328339974303,0.0012055824370793592,0.09149494880477876,0.14363685093045975,30,28,66,76,1
0.0007909019214889342,0.001128675071355863,0.10353318618395822,0.16277869374108003,24,28,69,77,1
0.0007977592464834551,0.0014014753869714845,0.10997255232096939,0.1814602115030039,30,31,72,85,1
0.000846951753198098,0.0013351327428385406,0.11995441963188286,0.1873536365819793,24,32,65,80,1
0.0009332175350812204,0.001495655713115117,0.12725154994893276,0.19704605860639546,31,38,65,78,1
0.0009481872403453487,0.00134744380094185,0.11838609412068106,0.1810959483430302,30,28,71,77,1
0.0008657804860160509,0.001291436718613595,0.11739152930814331,0.16979132120916288,34,31,63,72,1
0.0009307062303948111,0.001052371103268951,0.11740380257883525,0.148708778160811,26,36,68,72,1
0.0007622547592064361,0.00103534292891179,0.10676881524011579,0.13185507540771585,30,30,69,74,1
0.0008170380893670752,0.0016321650054700902,0.10713568771816716,0.15711028101214009,30,20,69,67,1
0.0007353688861363733,0.0018666388062156371,0.10224184773812242,0.17836298111074933,36,26,66,70,1
0.0007118838546504857,0.0018075448429664851,0.09320997748564229,0.16809212771025606,34,24,70,69,1
0.0007226445791890032,0.0019042264509868186,0.08905147255725952,0.17288962905618935,30,22,60,66,1
0.0006392808230969771,0.0015495236977714011,0.08283301093999312,0.14279456632542042,28,20,65,74,1
0.0005763906568109882,0.001137818073505825,0.07732858246148668,0.12423247688663966,38,20,70,73,1
0.0005734122850833142,0.001126570209537493,0.07567210529325616,0.12365379533160412,30,20,69,75,1
0.0006106293174070536,0.0011453681220158754,0.07844825654974233,0.13367009958630535,37,26,74,68,1
0.0007016655027174491,0.0013523929519591862,0.08392661121914256,0.13888043409733655,30,18,74,67,1
0.0008155134690405314,0.0012895001713873013,0.08728493425979797,0.13181961956657962,30,24,74,65,1
0.0008350260649181419,0.0013532265707832032,0.08889356270077513,0.14416158426752274,26,20,76,63,1
0.0008326570390165114,0.0014059536315059434,0.0850740394077049,0.1412483114744288,28,26,73,67,1
0.0007183245117218439,0.0011672354124120335,0.08298923412382195,0.13238190464361535,32,20,61,70,1
0.0006912558124485749,0.0012806751740657373,0.07797489859641331,0.14181789874272632,27,24,71,64,1
0.0006593705684639392,0.0013170452488525497,0.07496127921966593,0.13287214901473487,32,26,72,62,1
0.000632544333229934,0.0010667089787183832,0.07997848966414436,0.1302831304451859,32,24,73,71,1
0.0005823414017353238,0.0011201412853445519,0.07905323707647324,0.132116354144918,32,26,72,72,1
0.000603062325885425,0.0010951796832274771,0.08894387921727995,0.12939339216374288,40,24,74,75,1
0.0006210767085233845,0.0012263837946094823,0.08718414109156243,0.12736585392897934,36,22,80,76,1
0.0005629490964928822,0.0012871944212880662,0.07694582496235731,0.13905072427369675,24,22,69,69,1
0.0004981970399404401,0.0011920908698478524,0.06538617011029653,0.12813965204925096,28,18,72,65,1
0.00042970074524668054,0.0011705936603796,0.052466872438833724,0.12601963380842934,24,30,75,72,1
0.00037705988475294686,0.0009519846048730176,0.047147486217470294,0.11793484479105569,22,40,72,81,1
0.00046757269806839733,0.000992764736591843,0.06379498264482197,0.1279191328154913,30,34,82,77,1
0.0005758705046093573,0.001062712684374055,0.07681282958108933,0.14718670177418886,26,32,77,79,1
0.0007025896596627125,0.0011759797174674513,0.09684638448209264,0.167088463149756,30,30,74,76,1
0.0008587700423368183,0.0011224591785067143,0.11954972219320845,0.17089066941052186,32,32,68,77,1
0.001039124696476864,0.0012429158845165239,0.13992827226842952,0.18183903659277756,36,30,66,81,1
0.0009785366657865833,0.0006617087572130632,0.1337809108107795,0.04774084215237881,28,14,69,52,2
0.0015515621601292812,0.0005756613743683838,0.18935228106715318,0.04158318753431035,18,18,62,63,2
0.0017722473719424794,0.0006362045984268646,0.19830606165007694,0.04696191548326182,18,16,67,57,2
0.0025627171305641944,0.0007895356701525074,0.28148683223666,0.05197225209394411,20,18,68,50,2
0.0029440419317556797,0.0008538298495750425,0.34217108666386775,0.06198836861306747,20,20,67,41,2
0.0029878530387087688,0.0010089301246312375,0.37632181411682636,0.07246842123074713,18,14,66,48,2
0.003218075649934861,0.0008173031571555746,0.4248801391459972,0.06714883883748245,22,23,62,55,2
0.0038937479123598933,0.0008587058636826124,0.492487413848487,0.0719626358970524,24,18,60,64,2
0.004534601295998029,0.0007725875378135331,0.6325000514545166,0.06945910130553486,22,23,63,63,2
0.004829373877989711,0.0010180733359398566,0.7038457599328863,0.08151612694929355,22,16,68,59,2
0.00525672893505915,0.0012486531879802617,0.7469926280877773,0.09688735668805983,28,18,67,51,2
0.005317817479761261,0.0012594115044203497,0.8357577839788073,0.10450435045438886,28,14,75,60,2
0.005223859921462698,0.0014698391728201275,0.8144461824977592,0.11395550942221305,28,19,77,55,2
0.005812611200606711,0.0012785057426953747,0.8520299103204574,0.10958806670072713,22,24,78,64,2
0.005883747861080288,0.0012931106864549353,0.9127840365914993,0.11647076178065421,26,30,74,59,2
0.005454518487422966,0.0013223674180891849,0.8535645055099451,0.11793911109356509,28,20,72,59,2
0.005439238475468775,0.0015847022747514502,0.8331030910269679,0.12666742828057836,34,19,72,61,2
0.005887319338165207,0.0015830216141963244,0.8793695722024178,0.12316200999981922,34,16,75,55,2
0.006568692686444515,0.0016899995856002276,0.9490168710334227,0.13248680367648824,32,18,76,64,2
0.007358086434038421,0.0016857249162936178,1.0445637981958964,0.12886249610490705,30,22,75,66,2
0.007209732667476738,0.0013840846941998034,1.0686041483976927,0.11811616483071752,28,22,71,72,2
0.006525411297649371,0.0014356161585848827,0.9992180285519038,0.120504169182863,32,20,74,67,2
0.0063640044499191405,0.0015254322449172336,0.987800228765285,0.1282606709184709,30,18,70,61,2
0.006070928875137727,0.0017065056321875916,1.006448269152953,0.1414657227515205,38,18,78,61,2
0.006265808566354938,0.0016866213564077218,1.0663133576646886,0.14545844903263708,36,16,78,58,2
0.007678056343104566,0.00160467928383666,1.2212154775643511,0.14628805784593996,34,20,73,56,2
0.007295072457970662,0.0015699596363335025,1.1787147712607937,0.16057624879790497,34,26,83,61,2
0.007040984854639079,0.0014036835759298457,1.0637871841902902,0.1608035790121207,34,26,77,61,2
0.007128221551235495,0.0014948058455851174,0.9964913136386508,0.15870350031587563,34,24,80,56,2
0.0062878988971111814,0.0015630697169618931,0.8827617855156585,0.15999399551596005,28,26,75,63,2
0.005921035516004829,0.001584328643208771,0.8590787434516154,0.14326532084659585,24,24,69,60,2
0.005393515201439813,0.0013988235037388638,0.8243909939008403,0.12798331401250043,32,26,73,63,2
0.0051488400939936115,0.0015083538636812372,0.8018449614195394,0.13954866330806473,32,22,70,62,2
0.004866847880825575,0.0013048675308816133,0.7565569378940318,0.13212718221573946,36,24,70,64,2
0.004569482703485093,0.001285935538960966,0.7307722868324169,0.12328779730894773,28,14,71,65,2
0.004254382643913283,0.0013695791075284838,0.6746485312066207,0.12829998050585192,38,16,73,66,2
0.004205055110414059,0.001320658950767496,0.6970932981422363,0.12615816951458775,40,16,67,59,2
0.0039313772111687715,0.0016867683426377638,0.6622110987122525,0.14560228892412905,38,20,69,62,2
0.004071778990541816,0.0017663427271343351,0.6486214434070753,0.16023886814349012,34,16,70,57,2
0.00463960296398027,0.0014926695044313936,0.659426853665361,0.13673811219365417,34,12,72,55,2
0.00447446725844638,0.0014606657169785584,0.5820623153540015,0.12833863168049697,28,14,70,53,2
0.005566762992664518,0.0011817178446903887,0.6575419344650507,0.1042833146214038,22,16,62,60,2
0.005757654982895236,0.0007846075180032685,0.6852699572079479,0.0959053780665565,22,26,64,59,2
0.006386764544478325,0.0007921683343488336,0.8396138637914066,0.10950485145560787,30,30,73,72,2
0.007068998456030191,0.0009061769524432672,1.0639543483607923,0.12364508778349631,34,34,75,71,2
0.008264477752416642,0.0010746442896090648,1.1999654329643719,0.14089898344646218,30,35,81,72,2
0.00973620148128362,0.0011055395190486246,1.4203388001796091,0.14900658150463839,30,28,85,79,2
0.011255011078741913,0.0011788034344595506,1.6342173143866334,0.16745570676263724,28,32,79,78,2
0.0005551813321762705,0.00284630624498128,0.05743806828020397,0.24619595419532694,24,16,52,53,3
0.0005490066314120258,0.0029084457896313676,0.05401934362291772,0.27535248213158514,22,18,50,54,3
0.0004427253601551646,0.0030089085489790916,0.046580734430662046,0.313360245680946,22,22,53,54,3
0.0004629600390197516,0.0033368681376486587,0.04828491520854222,0.34255061797921743,28,20,63,58,3
0.0006708306798909085,0.004341750701204693,0.057653757734351094,0.4027643997647399,16,19,47,53,3
0.000604393217583806,0.005468971733064043,0.06397408039608965,0.5730914461726904,16,22,61,55,3
0.0005904880008317645,0.006357614192103231,0.06383568519098323,0.6569481849940755,22,22,70,58,3
0.0006198166094391706,0.006980326355842705,0.07400545195551045,0.8517227679007697,20,26,69,65,3
0.0005062718321857886,0.007259198135656992,0.06569720198318152,0.9688959808186456,34,30,81,66,3
0.0004380926223166949,0.006533162452435512,0.061890910154036964,0.9396228022897569,34,30,78,68,3
0.0005173864485305785,0.006741332800697674,0.07067833811624646,0.9472203390229426,32,32,73,63,3
0.0006009196171006156,0.006732646550487944,0.07141332467584229,0.862203438156278,22,32,67,58,3
0.0007724298086416917,0.005813907651769855,0.0845800834399571,0.7684800998639054,19,30,66,59,3
0.0008754571302430972,0.00606510147733196,0.09583820796506043,0.7802528215891599,20,24,69,59,3
0.0010076551822042748,0.006986783473629835,0.0997263012496689,0.8350646854355598,18,24,70,54,3
0.0009310945098041644,0.006885614290338479,0.10091001793913515,0.844651684037352,20,26,66,53,3
0.000710543478936009,0.006556630732663657,0.08238192500979519,0.7868044044054081,26,22,60,54,3
0.0005245207022937411,0.005656016231980957,0.07024212823134911,0.7159472817064233,28,22,68,60,3
0.0005054755159022088,0.005244187851971925,0.06677102080719027,0.7083963789580455,27,24,74,60,3
0.0006331056712661788,0.004976387436162672,0.06794052529693857,0.6728024789952556,20,22,72,64,3
0.0006052140738904607,0.004839371055602083,0.07301079528744692,0.671033656972935,22,28,73,63,3
0.0007608577266230049,0.004574116391881471,0.08515424156125392,0.6857251400397231,20,34,67,63,3
0.00081062762209623,0.004640731182695362,0.08854602989931568,0.6485870411260813,20,32,73,65,3
0.000907400656625281,0.0050933945234281994,0.100470711772626,0.689770024282249,16,34,65,63,3
0.0008892172187853149,0.0052583568669351925,0.10588794304441629,0.7290438070689651,22,32,67,63,3
0.0007463824871693707,0.005084445726081402,0.09481005527489218,0.6775232055087029,20,26,66,70,3
0.0006556929595522215,0.004459169021659724,0.08484578566237513,0.6152678492601378,24,30,72,73,3
0.0006157702428220155,0.0037543364258385975,0.07889367614164863,0.5430163647640915,26,30,74,80,3
0.0005754450914542368,0.004406009764744945,0.08161779253951001,0.6121233868993297,28,30,74,81,3
0.0005687810153815775,0.004717528872708616,0.08230084693774267,0.687581093527163,28,32,72,74,3
0.0006864044728926368,0.004782329587063977,0.09455748232194648,0.6853888153697352,31,34,65,74,3
0.000728928760667993,0.005404605665114432,0.09289862559622401,0.7200457037689676,24,26,68,73,3
0.0007792886981009729,0.004783644577702655,0.10435114269803836,0.6825318484979606,32,32,66,69,3
0.0009321763688083553,0.004568644277823066,0.1187879437364015,0.6774432264047814,24,32,68,68,3
0.0009407119440674467,0.004783659350952287,0.12173612206189816,0.7325133848952042,22,30,66,68,3
0.0010480629665752667,0.004580807783219814,0.1275270556672027,0.6833033157338416,18,28,62,64,3
0.0009716810987439085,0.003893314313916171,0.11247164259039279,0.6252530103516037,16,34,64,65,3
0.001278547808381284,0.00368995001079132,0.12805213831352907,0.5679576121497579,16,36,54,62,3
0.0010837671699764934,0.0033013363386173167,0.11719619759796812,0.47483999483552075,16,30,60,66,3
0.0014233489326164433,0.004004699525273323,0.12037281813110702,0.5125231704457891,14,30,51,67,3
0.0013689460911388018,0.00408516002880489,0.11707640881507088,0.5093562572255487,12,28,51,68,3
0.0013337740656297148,0.004088845963448417,0.11570914335308928,0.5424756044497983,10,26,54,72,3
0.0011163733141293668,0.004246281111013919,0.11108770452717671,0.5952604534069259,12,28,57,67,3
0.0012824323952490629,0.003915323008774657,0.1352583617731068,0.5528154651092749,14,36,59,74,3
0.0014632264784283531,0.004127485221156314,0.15030516556565537,0.585460451817576,20,32,61,74,3
0.001753281518679662,0.004064545543065957,0.19196585610518943,0.5598444025479153,14,32,57,72,3
0.002054404185396012,0.0048089610000283875,0.23254121014435103,0.5726811434572993,18,30,52,69,3
0.0024095773928593076,0.0052684871077756205,0.2864713749007898,0.6286727951191754,22,20,51,71,3
0.00025740303776282554,0.0007407298947798926,0.020532133114745846,0.05940769495966976,20,16,39,54,4
0.00023830352654434907,0.0006817937614953831,0.017368886788824086,0.05069918064031169,18,18,35,52,4
0.0002185808218801686,0.00046681579096226236,0.01358439583142103,0.04094667047447331,16,22,36,56,4
0.00021648945808008487,0.00046120475488531257,0.01342890880154503,0.041112137263127776,16,24,33,58,4
0.00020273942352079586,0.0004943018941145352,0.012454047091807483,0.04287458650094134,18,18,34,62,4
0.00020256859278056888,0.00047295196951042376,0.012235416712196525,0.04160700797423182,16,22,39,58,4
0.00020859613478201117,0.0004798848053032978,0.012576874547419683,0.042509175266938926,18,22,42,62,4
0.00020145479579062548,0.0004700728175210972,0.012600141454471112,0.042025135385230394,20,26,35,60,4
0.00020552412500431753,0.0005022882718109077,0.0127986869480022,0.040945681362631416,18,26,32,60,4
0.00020534697029212095,0.0005176920000743115,0.013064655918889298,0.04263839094069265,18,34,37,62,4
0.00020461050303122546,0.0004948967253482816,0.013177794030958282,0.04189076746704677,18,24,32,68,4
0.0002027916064945053,0.0004566987225330476,0.01303913561187365,0.040167301367019015,18,24,38,63,4
0.0002060029570527461,0.0004798216310684398,0.012992297970211576,0.039661298221596156,18,24,38,67,4
0.00020160831303761266,0.0004760511214272799,0.01258736098932407,0.038810457047036645,16,18,37,68,4
0.00019848779134263987,0.0004530677510195321,0.012800947964511863,0.039739538386785025,20,22,30,68,4
0.00020331970810783792,0.0004700262536839394,0.01293322687661442,0.037948671088794815,16,24,28,66,4
0.0001958446358521171,0.0004660685000570072,0.012680984525584214,0.03911393096272678,18,22,39,60,4
0.00019629406621041203,0.0004698903828989084,0.012821784560061248,0.04060243190024619,18,20,36,56,4
0.00019623185422848005,0.0004831208170850289,0.01265860957286679,0.04046045313220855,18,20,30,59,4
0.00020004841468393756,0.00045933616199042603,0.012655437545741785,0.04072565489223695,16,24,35,58,4
0.0001988631977527098,0.00045813533321834493,0.012601191302420267,0.04000720454322427,18,22,31,59,4
0.0001927342906624673,0.0004635205534956416,0.012267119357273266,0.03911285234491764,18,24,34,62,4
0.00019944799944939968,0.0004634052244910912,0.012078592425346972,0.03879363115352176,18,24,31,67,4
0.0001944155942718429,0.00046257945461578373,0.011869100986816606,0.04124365026225657,16,24,37,74,4
0.00019297541843154266,0.0004366452731930743,0.01211029309031433,0.043532524116837404,18,28,34,72,4
0.00019581927136209985,0.00046257157132461,0.011860963538697585,0.04183423212311003,18,24,30,66,4
0.0001915909528106544,0.00043869410314402674,0.011957518076001952,0.04317890812556182,18,24,38,64,4
0.001458943811996454,0.0008113974393706934,0.08509465191057129,0.0628863463223272,4,22,54,60,4
0.0017713530855044612,0.000939243659704107,0.1048361077047442,0.07094186052637347,8,18,65,57,4
0.0017355483956357585,0.0009844711158227357,0.10312855463144126,0.07658104541609372,8,26,84,53,4
0.000664725334329034,0.0008492740474862364,0.046737193093374256,0.07382422232291923,8,14,37,59,4
0.0005547527826069083,0.0007396401920143814,0.041063941201508095,0.06985069492995334,9,17,51,66,4
0.0002426292304265215,0.0006418006246141362,0.020016915971240726,0.060271771945010516,20,22,46,68,4
0.00022308831764137937,0.0005611076036265168,0.020062155581759902,0.05386738009385328,27,17,42,66,4
0.00020719464478465498,0.0004897154680278517,0.014154401103856377,0.04182353580036089,18,28,42,70,4
0.00021551285680132686,0.0005683504683851489,0.014850827894334059,0.0486129130917971,19,21,38,64,4
0.0002178511577516039,0.0005543032860616269,0.015102413084846205,0.047723188256581915,18,18,36,70,4
0.00021181107771675172,0.0005537175198617321,0.01394241392119792,0.04816167374828079,19,21,30,75,4
0.0002143505310836781,0.0005643014242106097,0.013545466302114697,0.04942305082619476,20,24,34,67,4
0.0002052383445956275,0.00047320596314801364,0.012926037176836802,0.04328841144023933,17,20,38,58,4
0.0002073836523449488,0.0004770477487029338,0.012869083945607759,0.04467567794309609,18,22,32,61,4
0.00020523152264980012,0.00046886003386112444,0.012845855733036872,0.04434432984138377,17,20,35,63,4
0.0002087939441883243,0.0004763219792188266,0.013214885431112948,0.0444251958695043,20,22,40,67,4
0.00021161203749891637,0.00047951087852096794,0.013172055295781467,0.04352129521686642,21,22,40,70,4
0.00020960834496531626,0.0004960729201366878,0.013498830577574979,0.04575436523988621,18,24,40,72,4
0.00021568232394415617,0.0004823751459149759,0.013195619244067716,0.04183434571004346,17,30,34,70,4
0.00021292885994077932,0.0005034488473636391,0.013406968018247353,0.044059134912681486,18,26,36,63,4
0.00021614196986766655,0.0005013593700986652,0.01342584651292691,0.043265757752634845,17,24,36,55,4
0.0020933327106266563,0.0021821558981563903,0.26886822508808134,0.2754904016986404,16,28,68,68,0
0.001862936628099759,0.0024049000636534794,0.23644010883476085,0.2849243003793616,20,32,69,68,0
0.0020378788199750635,0.0026218515977863154,0.23603073166836794,0.28415568304247457,20,20,60,68,0
0.0018450437681920907,0.002477569644727573,0.23005404125480639,0.28260156397030356,22,24,60,72,0
0.0018496871774568385,0.002213638426579073,0.2202862561081819,0.27374833051204406,18,26,57,69,0
0.0015648432210843236,0.0024923531074096885,0.20191775964646974,0.2824966620509777,20,26,59,64,0
0.001562251632281422,0.0024369052066242495,0.17454280020004717,0.27760073048232314,18,26,59,66,0
0.0012526163682229311,0.0025400450668277203,0.1760710056293515,0.26398304603228145,26,22,67,64,0
0.001010728861508218,0.00282334775857246,0.13338283659539793,0.29375073926144535,28,24,71,62,0
0.002188443691099925,0.0028477862202262376,0.18600041805457737,0.2727391156361561,12,22,58,66,0
0.0023090075460523067,0.0025565186555145,0.1904491885369465,0.24396641363144334,12,20,59,68,0
0.0020379662152072934,0.002452486345908873,0.1445562654667823,0.2261444473430593,6,20,50,64,0
0.0006859031526973465,0.0015655576477935954,0.07569953289121607,0.15853700431646076,16,20,46,68,0
0.0007999722206551727,0.0019611817589042426,0.07976251458495755,0.18217571116280976,12,16,52,58,0
0.000815873682655514,0.0020214833656196337,0.08211461322272802,0.19005315059256725,12,16,49,60,0
0.0009403121728490042,0.0019675110625347937,0.09616184052286761,0.18334799233928661,12,14,51,69,0
0.0009182754238886024,0.0022719166656417515,0.09671122184813973,0.20730274411908237,16,18,54,59,0
0.0008703414606687257,0.0017594329436389352,0.10320246596695826,0.19226239241145462,16,22,57,61,0
0.000960093228701018,0.0017616698332723645,0.10870815397109024,0.20908315476601239,18,20,59,59,0
0.0012207872582324917,0.0018944784746603976,0.15021694938110774,0.19952259073585837,22,24,54,61,0
0.0014981595706372287,0.001807201472777157,0.18834143326489847,0.20014070424825228,20,24,62,67,0
0.0017111469871014735,0.001909680827579453,0.2119381285404739,0.20757446144698088,22,26,56,73,0
0.0018583096951547656,0.002016612812399556,0.24389274885908052,0.21442231227292513,20,26,58,69,0
0.0018005031912340951,0.0019197575858098306,0.22867375335604323,0.2294393741677442,18,26,56,71,0
0.002190891167556652,0.001974962792675411,0.28080234389184794,0.2319455316289014,20,28,58,70,0
0.0021341329788093543,0.0018454471158631392,0.2627607463157561,0.21607100032147,20,28,65,65,0
0.0022537611889208112,0.0019462581261873889,0.26987855180664205,0.21553956715329778,18,26,69,66,0
0.0022798462513052716,0.0020075368007723424,0.2713035532949355,0.2160863300374609,18,18,67,66,0
0.0018928961953139298,0.002131142716301938,0.22038612829852025,0.22819113831270155,22,18,64,60,0
0.0025382114556719727,0.0019500992665031384,0.2868009293485672,0.23517422609877173,22,20,69,70,0
0.0022413561696612546,0.0020880140340277468,0.2526512687570754,0.22996967341805227,22,14,69,67,0
0.002736369834560386,0.0018885160887904984,0.30082704567653606,0.21916622139532724,20,20,69,68,0
0.002150793622883475,0.001507754848082597,0.2737842798937134,0.20782270312624876,24,28,69,70,0
0.002013825217661825,0.0014425300241947111,0.2540721621669124,0.19947233111955617,18,32,67,69,0
0.002381449855552775,0.001673801918387483,0.2945960115167624,0.2300544642404214,18,26,65,67,0
0.0021151795993160976,0.0018069058329387585,0.25295663215453545,0.24976970748188196,14,22,63,61,0
0.0022595941513788094,0.0019848618288398037,0.2561594921281479,0.2687239669966015,20,28,59,60,0
0.0019612152560742947,0.0021233103058577382,0.232587552308866,0.26647253095123596,24,30,66,63,0
0.0017694714596486142,0.00184312954694806,0.219170827732069,0.24185643864797815,26,30,60,66,0
0.0018569081352645292,0.001654082952151046,0.22693698454045672,0.2219735835446323,24,32,67,68,0
0.0020799291333461626,0.0015675198677760896,0.2549624555925401,0.20010275614504233,22,24,58,75,0
0.002357015018796047,0.0015776737445627016,0.30434697537720684,0.21133813549361302,28,26,57,71,0
0.0025271773186118164,0.0016402211389447052,0.332265637250211,0.2208630471738373,24,22,54,73,0
0.0023248818860930223,0.001641605174757081,0.30469340540288603,0.21280022843534238,22,22,58,74,0
0.0020173361287808044,0.001672203549344996,0.27686981179086734,0.22329487489956804,18,24,56,68,0
0.0015406324669492058,0.0016079336034827097,0.204317402950869,0.20470960599997554,20,28,56,67,0
0.0013853338531609372,0.0014509301033166974,0.17459965949232392,0.18155446358969257,20,32,62,73,0
0.0012699408984810196,0.0015151019040740646,0.17679980674801982,0.19477790504074322,28,28,63,70,0
0.001487620065966519,0.0016500174718883697,0.20260697890754162,0.19036946599968965,26,28,64,71,0
0.0009268454108264003,0.0013358415503573918,0.11749793161958462,0.16095832014817174,36,26,72,76,1
0.0008533407160555175,0.001183423417981471,0.11226610188858681,0.14747093058258193,34,26,76,72,1
0.0008030311597431424,0.0012442823033050623,0.10492187650795394,0.14895038631875607,34,31,81,73,1
0.000819103374196596,0.0011963648514780637,0.11175474290091629,0.1540579030703474,30,28,76,69,1
0.0008207532308109949,0.0011427984118949968,0.10235880359581734,0.14200872735768025,30,31,75,78,1
0.0008652123738650589,0.0013140637890918716,0.10433958125734678,0.16422227367838224,30,26,71,71,1
0.0009065481423373995,0.0012324163435768548,0.10943558768794953,0.15177848446844652,32,27,63,77,1
0.0009765384447260274,0.0013523431101566397,0.10306131201530264,0.16636446570501418,20,24,64,76,1
0.0009351921458611642,0.0013314753530548951,0.10846197936243579,0.1604181804405656,22,24,66,73,1
0.000751109879958586,0.0012062522640319514,0.08920041881625522,0.12346647068647112,22,22,67,65,1
0.0005535087343304724,0.0011051077120438268,0.06449930939409211,0.10329990187793334,18,17,53,57,1
0.0003741183785502648,0.0008784425441889875,0.0441729920499128,0.07897380241946865,18,18,58,56,1
0.00020773770146292618,0.0007579471514536941,0.01744734757484607,0.05174609828202263,15,14,52,52,1
0.00022063744589859464,0.0007112473320602311,0.01884711580878246,0.05379335845740289,18,16,50,49,1
0.00023555318567030514,0.0007379049011712285,0.019239111175777635,0.049443558418318094,18,14,52,51,1
0.0002268536585282387,0.000646372029408467,0.019412753811347036,0.04269099809687651,22,22,41,44,1
0.0002287557853686171,0.0006933219187406907,0.01930385695443187,0.048986400025808896,20,20,48,44,1
0.0002782978862201815,0.0008263534838745206,0.026218155517998637,0.07642584018862433,20,12,55,55,1
0.00035865258005811064,0.0008977106662141067,0.036561023009557846,0.09502278615047781,17,21,69,66,1
0.0004909067398969543,0.0010765084492404845,0.048885841403276876,0.13312196546465005,18,20,71,70,1
0.00048330136585212637,0.0010104893870198455,0.049197919721799134,0.12670496822472171,19,26,58,73,1
0.0005032021380029993,0.000981061178954981,0.052004397480493715,0.11488261706820835,22,20,58,66,1
0.00044812579235159906,0.000922891096723875,0.04556665584259401,0.10663496358587563,23,24,57,69,1
0.0004077084725653534,0.0009329587900200486,0.04190514129207446,0.09661308993778514,26,24,55,71,1
0.0004048357240915303,0.0010800977539954942,0.044941329022375034,0.13990132393890395,23,28,60,65,1
0.00046837079105303776,0.0011599551938551388,0.05306966526057823,0.14442655356658707,24,30,59,60,1
0.0004883675427089607,0.001246118054915577,0.05391497152997421,0.15398946821387466,27,30,63,57,1
0.0004690049746329307,0.0012502976716750453,0.05444284996121135,0.15308126850678233,26,28,64,65,1
0.0005216900041964999,0.0011551338186593805,0.05917386661852702,0.1452373528429565,25,29,60,74,1
0.0004813110461652442,0.0011133505111615887,0.04959850758771685,0.14656841186203887,26,26,69,71,1
0.0004780050697745771,0.0012787756668609094,0.05055854417550542,0.15373765501815204,34,26,68,68,1
0.0004248444501399469,0.001412926696936671,0.04629950636390627,0.14622541077762677,26,22,72,63,1
0.00040749152413554286,0.001196660407418389,0.04469091974727392,0.13297047045264757,27,28,67,64,1
0.0003617132192770723,0.0012585935250965428,0.04264636235498453,0.12735168491885632,28,18,70,68,1
0.0003969424191977971,0.0010417953918346573,0.04230896145824062,0.12409659283730462,23,15,72,70,1
0.0004095411853107866,0.001174761992985316,0.04201447856833998,0.1290693435400897,26,20,75,70,1
0.0003743874941629555,0.0010631353679993781,0.043181737547840666,0.12845962009697431,27,24,78,70,1
0.00041303348585013116,0.0010704740008718205,0.043861066843886645,0.13132694556437413,28,26,75,59,1
0.0004193589497882675,0.0010821523312179997,0.04489347988342194,0.12780593535652093,24,22,76,67,1
0.0003876882924522816,0.00113025592585261,0.04445585031010769,0.12856194622378056,20,22,79,61,1
0.00036041384679451506,0.001070823018766505,0.042421170812032304,0.1256828849758998,19,22,85,62,1
0.00036508054336829,0.0010443290931638936,0.041930024216122574,0.12419819007170328,28,26,75,65,1
0.00036358443283901145,0.0010340105690023142,0.042150333819605916,0.11832208716486603,33,28,74,71,1
0.0003512935078652058,0.0009071930686100051,0.043350987568635035,0.11350521835691105,32,26,62,73,1
0.00035825168823368865,0.0009752703846941504,0.043803932631183526,0.1235123792487196,31,32,62,72,1
0.0004150736763090659,0.0010408629541179466,0.04664866424012527,0.12008429960509018,24,30,66,68,1
0.0004397594122739219,0.0010537815856653233,0.046750269225049185,0.12266819876037256,28,28,59,63,1
0.0004255260399797667,0.0010509224252027336,0.047061070147043305,0.1220621490089305,26,28,69,68,1
0.0004180954473990995,0.0011092414515883873,0.04550014105760949,0.11308852290550407,29,24,66,69,1
0.00847567554176982,0.0019145974677974304,1.3391132010154838,0.20835356857847523,36,18,73,61,2
0.008555819220762496,0.0020752111956583,1.382312482054197,0.21675545333460086,36,28,73,62,2
0.008072727882996468,0.0017575518572193445,1.357525852873371,0.20359843067298655,36,26,73,57,2
0.00841135488823535,0.0018973539006444436,1.4135089151229734,0.2031134091028447,36,24,76,59,2
0.00799153727519093,0.0016556865407036303,1.3917313767047632,0.19790287472843676,40,24,76,60,2
0.008111724314756149,0.0016842908300056492,1.3076172950031082,0.2042401138129777,32,24,75,67,2
0.007864316639984173,0.001720146010428167,1.1982551274804,0.2153619795283184,32,28,73,70,2
0.007682976942012436,0.00168454422909622,1.1312621452583482,0.21708314555252373,26,32,69,67,2
0.008276172414028112,0.0018291944266363438,1.0417858978408614,0.21933073124188726,24,26,68,67,2
0.006535583458763229,0.0013904642019105387,0.8359088374563343,0.16580263363405448,24,26,66,56,2
0.004932728944349048,0.0012201510166274284,0.6391967889359813,0.1231641149889476,18,24,68,52,2
0.0035447631211451003,0.0008994193378691422,0.41766607420926516,0.07826444892044374,16,23,59,53,2
0.001965883696270672,0.0007538685717774803,0.2230714786838835,0.053285628470968675,22,22,55,55,2
0.002720181363186967,0.0006689580367105663,0.3106453565817288,0.0573306822115146,20,24,60,54,2
0.0036729066531921706,0.0007661761237921695,0.42776842639561397,0.06419093786273135,20,24,56,56,2
0.003971748357863192,0.0007764664028493643,0.5381792605432357,0.07237705482692808,26,29,68,64,2
0.005269362552444513,0.0007943135772313975,0.737143557928123,0.07865886884464951,26,26,68,73,2
0.007370252297955007,0.0008142602511300583,1.063978180432473,0.09484698134742314,24,29,64,78,2
0.008956301476086632,0.0007671975407290382,1.2369332403986388,0.10785658185537551,24,32,65,80,2
0.01033128245545325,0.000897786264391869,1.4585229501099244,0.13031305095199686,22,39,64,82,2
0.011701046441741832,0.0009425300282540487,1.6305427680309064,0.15244042030254165,28,36,62,85,2
0.010448276642792055,0.0011126503575204488,1.4981705488195824,0.1626220943897707,26,39,66,83,2
0.010613720198353835,0.001044261423627568,1.5806154450019616,0.173379118865693,28,42,72,87,2
0.010826482577731176,0.0009933075527375592,1.5905280146600222,0.1607679175794194,30,39,68,86,2
0.009957415324615805,0.0009296820826978298,1.4524478328442219,0.14583709510312126,24,32,74,92,2
0.01003710698255447,0.0009133878699607351,1.468469043749905,0.13711873786828574,30,39,72,87,2
0.009638837422876523,0.0008468659309093203,1.388197376560791,0.1293098765231455,32,34,72,84,2
0.008931982703805437,0.0008086279167102684,1.3015921725457256,0.12994716113284868,30,39,75,82,2
0.008351500971185519,0.0007814326630750304,1.224752297741655,0.12575851832505358,26,26,82,84,2
0.008525900822656036,0.0007810425193814131,1.2566086941955155,0.12298166638216755,22,29,73,87,2
0.007892110667514819,0.0007619151794294331,1.1497656525637796,0.11935301245705844,20,32,83,87,2
0.0071559062889080425,0.0007472789734061365,1.03174990831515,0.11083034017435228,22,35,78,91,2
0.0071258810494456756,0.000771534514661349,1.044128693799706,0.1168192417942042,24,24,74,85,2
0.005991617902771589,0.0007473347197423153,0.859158102351341,0.11298535626258527,26,25,76,77,2
0.00532925857857132,0.0008252291112225908,0.8135773510043136,0.1149438805855978,28,32,74,79,2
0.004989593939359286,0.0007550499317038776,0.8008171054444413,0.11177618675742867,38,34,73,78,2
0.0047672649840466656,0.0007621382079505862,0.7633454860685761,0.10811196559888124,32,32,79,83,2
0.005143392267689657,0.0007332792933227668,0.8001791823082894,0.10239499414993934,28,41,76,85,2
0.005282898010907406,0.0007278473724403983,0.8880936485776705,0.10355122025680547,32,36,77,81,2
0.006301156193180221,0.0007513748056894709,0.9692828237834927,0.11424360582053047,28,41,75,77,2
0.006093746950448001,0.0007786789791946633,0.9570527044594489,0.11070663516226961,30,30,75,77,2
0.005946595246092212,0.0007830834897817225,0.9882546030982572,0.12161474002378905,30,33,77,76,2
0.0062537818746566,0.0008228102888796185,0.9383926442509967,0.12650792447341896,28,28,73,73,2
0.0056369573409199535,0.0007371066650252486,0.8310555515415259,0.10941059880240489,36,31,75,78,2
0.00626682139711955,0.0006944903860400621,0.9559878127119296,0.1100802228530054,32,34,70,79,2
0.00730588774691028,0.0007258151641068336,1.1383883538161437,0.10803610916957265,38,36,70,77,2
0.007381193023685963,0.0007429909854558801,1.2052238875061707,0.11001065006169072,40,36,74,79,2
0.00795640963316715,0.0008035011396647734,1.307092972300979,0.12546226783473383,40,39,72,74,2
0.008338736420276218,0.0008440040860869473,1.4480066425466827,0.13153594995413947,30,40,72,72,2
0.0012123031626766465,0.008342401667715445,0.14844246669996017,0.9514377556603056,28,24,66,53,3
0.0011789130187229975,0.008426790549726587,0.15144505679707249,0.9062763003095932,30,24,72,49,3
0.0009835691767073808,0.009010161915230549,0.13359857610483106,0.8705462581632473,22,20,70,52,3
0.0011188365238568474,0.007873299400744114,0.13046213180306662,0.8614054897224072,20,20,59,53,3
0.0011613622866620318,0.0072671894763347376,0.14414326906707092,0.8275275371225118,24,22,60,56,3
0.001125357999622924,0.0064708923994462875,0.13297800205348248,0.7763223558273634,24,24,60,57,3
0.001123189874794166,0.005658181586169761,0.1289436475999077,0.670253228392194,26,18,61,62,3
0.0009161254678935609,0.004404428752061931,0.1142474460994403,0.5983601925656186,26,22,66,73,3
0.0008796723580863959,0.004008349447305049,0.10352081107600057,0.5337533036068622,20,20,63,71,3
0.0009183431612962944,0.0033451364836619983,0.10374352825618346,0.44856449160117007,18,26,68,68,3
0.0007138934683706849,0.0031689508660432703,0.08017456242835136,0.38885617145901097,18,24,67,58,3
0.0007155651088720323,0.0025691352347769637,0.07277783187090668,0.3254651774270764,20,22,55,61,3
0.0005754236208181885,0.0021396679118459833,0.05758717608067761,0.2561842984331166,20,28,53,58,3
0.00044707304065081337,0.0023971340550363322,0.05024516206648997,0.2989946541630758,24,30,51,66,3
0.00044860833998499065,0.0031652373819477096,0.05166099243344304,0.3702463935100692,24,20,55,63,3
0.00042563513494372145,0.003794506841940779,0.04410364268713341,0.45645896360783544,18,26,61,61,3
0.0003380325734226242,0.0037404250131760574,0.038261433913948845,0.4615446173902916,20,26,66,67,3
0.0005157273472697929,0.0035069505950856943,0.04753576261052129,0.4609345761335024,11,28,62,65,3
0.0009095277054522981,0.003045215715547533,0.09855398251413555,0.4311254991244319,12,32,65,69,3
0.000925974390550091,0.0026134781313857207,0.1021166287982337,0.37947287707255106,14,34,64,73,3
0.001212219455911137,0.003196014191649501,0.13593619485432964,0.4214278639891536,14,26,60,68,3
0.001558196363609187,0.0032784386328219063,0.18138526412360684,0.4563689785545968,18,30,62,64,3
0.00152974588381466,0.003948633455011405,0.1800090749701348,0.5257324855239769,18,26,56,59,3
0.001831392827499537,0.004793751373047795,0.20600065622619682,0.5815129087536476,20,28,53,54,3
0.0019462394800035692,0.0048046878157136765,0.2142233844846998,0.5902716069373996,28,26,52,52,3
0.0017813878214470932,0.005481018666088244,0.19658898409248035,0.6201341099200942,28,22,57,55,3
0.0015228184021451035,0.005956614151611428,0.19053313585320597,0.7119360300174771,26,22,59,60,3
0.0016148882580659248,0.006214320588124664,0.20557755371685213,0.7481220710099967,24,22,60,62,3
0.0015646572624885878,0.006755264249745155,0.2018846048904984,0.8336427121436976,26,20,58,60,3
0.0014560138428216858,0.007467631041275633,0.180564642759711,0.8605946476667525,26,22,56,55,3
0.0013005667388803583,0.006079830486855873,0.161832727644888,0.7477050425816917,26,26,52,61,3
0.0013111610442752104,0.0053608012319592,0.14400181553845887,0.6797352370947727,24,28,63,63,3
0.0010906101185057344,0.00507870730661729,0.12636107665733493,0.5999015404001615,20,22,67,57,3
0.0012243670735769714,0.004472747085239908,0.1432242000383224,0.5422568657322949,18,32,63,63,3
0.0011566045221155666,0.0044432860817121105,0.13707333636864583,0.5944294916660766,20,30,61,62,3
0.0009191563063521241,0.0044390587388418576,0.11146515581336192,0.6015151409407268,16,30,59,61,3
0.0008174480072565081,0.004347299874777019,0.09694894197037582,0.605334376974428,22,28,63,64,3
0.0005451150995146015,0.003920998203887125,0.06774573959410143,0.5631171897856222,26,26,65,63,3
0.00048807857298745964,0.0037585489114374698,0.06161240784337188,0.5014544918149253,22,26,67,66,3
0.000509337169423904,0.003485657082744572,0.06603585545754125,0.43297766678558025,18,22,63,63,3
0.0005433895496471942,0.0029537153456401393,0.06949588217239153,0.3953998677787734,18,26,70,71,3
0.0006171617382833457,0.002811623675582008,0.07317814732192057,0.36562550077914135,19,28,72,61,3
0.0006404945056265052,0.0025305471575356904,0.07275069243711017,0.3341469091493952,20,28,72,63,3
0.0008556758438729205,0.00249845039205878,0.08871498455041471,0.3264768624363836,14,30,70,63,3
0.0007246629194159479,0.0028100161771800985,0.08471648863867487,0.35133309449948114,18,28,75,59,3
0.0007503814640097581,0.003059170915684353,0.09444741227920057,0.3663567190456519,28,26,67,61,3
0.0009361013240014158,0.003389291732922741,0.10435456671645377,0.38155274627869373,18,28,66,58,3
0.0007011621005219629,0.0032946779287411515,0.09293378391679032,0.3795296489661087,24,26,69,61,3
0.0006953371822752638,0.0026784872363861236,0.0949137213191099,0.3369301804813265,22,28,70,67,3
0.00019833524446132177,0.0005226477290562065,0.012188248645716732,0.036175817567665296,18,16,26,34,4
0.00018804237178816224,0.0005175340273062997,0.011779925311853363,0.037480274873413245,20,23,28,32,4
0.00019594004532987782,0.0005586727212880653,0.01183408007388673,0.0382986365244552,20,18,28,32,4
0.00019124323095117974,0.0005131944157534256,0.011530427100770702,0.03368888016717743,18,18,28,32,4
0.00020041639950082562,0.00045428243752748524,0.011879134272825885,0.031936834443250434,18,14,22,40,4
0.00019356664384707653,0.00043924559458624504,0.011648602294058534,0.029885850494857792,18,17,28,36,4
0.00019878523177457784,0.00041061427653342757,0.011860158205778413,0.030377416913341296,18,14,24,34,4
0.00018756267860129831,0.00040846915318233006,0.011878803562104105,0.02931421094542116,18,15,24,40,4
0.0001856425848597016,0.0004500849863910328,0.01176413632712876,0.029607718981130897,22,12,26,38,4
0.00019311158930911972,0.0004008619086031329,0.0121264171649105,0.027408052965841687,20,19,22,32,4
0.00018665491393984938,0.00042936421060162637,0.011857884356548842,0.028133129984174277,18,12,24,28,4
0.00018995674189186773,0.0004020802864390199,0.011914397290028696,0.027797218391508505,18,18,20,28,4
0.00018684360651710654,0.00043529855586716873,0.01209368859881135,0.029834360599848994,18,18,22,32,4
0.0001914728556731392,0.0004564596204149774,0.011945598344591737,0.03210928350309678,20,22,22,36,4
0.00018942919037587792,0.00044657907792537276,0.012108265817082438,0.030262022679151013,18,20,22,38,4
0.0001901027617413049,0.0004708418116700024,0.012080263398280468,0.032496708734935244,16,20,20,38,4
0.00019021270240021182,0.0004521583242551623,0.012076597236338983,0.032149450840844376,18,16,22,36,4
0.00018480271131916662,0.0004156635294399158,0.011942972718305812,0.03003273650569169,18,18,20,34,4
0.0006211610550959592,0.0012080582688014875,0.05260518789244048,0.06731104254821717,10,9,36,41,4
0.0012249273194293278,0.001494301789091707,0.08703948805282528,0.09242217269960902,9,16,49,41,4
0.0012795004183047123,0.0015306165601836849,0.08919554227560766,0.09559353177105522,10,14,53,39,4
0.0011366105295655391,0.0013069090519215343,0.07697374433917695,0.08699070657304867,10,14,49,44,4
0.0007781517574131643,0.0006588506022626673,0.04579282947569443,0.05354609757125612,4,22,57,49,4
0.00023371042826842608,0.0005205860484898295,0.015657787997048325,0.03533056349513944,19,19,32,53,4
0.0002281899005029188,0.0006511550315288592,0.01533948824899952,0.038685396357942416,16,16,26,52,4
0.00022814367958331019,0.000589013588876523,0.014577645524797568,0.03885212452771641,17,15,28,42,4
0.00023705411487414315,0.0005790066450954263,0.014680673426428103,0.03740270376653941,16,18,30,42,4
0.0002280167081967435,0.0005919793248848188,0.014222640749654326,0.038027113013722406,17,15,28,46,4
0.00023567611457442564,0.0004885016232541035,0.014275367840476817,0.03385797472083937,18,16,26,42,4
0.0002349215446668844,0.0005146893342406135,0.014350005928719548,0.032591586834883064,17,19,30,40,4
0.00023644043958234083,0.0005584431244713912,0.01397252527962833,0.033880488140199665,18,16,30,32,4
0.00023307744424883075,0.000527263483230571,0.01381493788631878,0.03385081740963474,17,15,30,36,4
0.000230751269552846,0.0005397322395776857,0.014032551688567528,0.03502788065936027,18,14,26,42,4
0.0002314842426049045,0.0005181605190527364,0.013837632614727322,0.03269848896331106,17,20,24,53,4
0.00022333587564351783,0.0005180605915170261,0.013884111913069912,0.03237533740165008,18,18,20,42,4
0.00022655147532771165,0.0005431336396308089,0.01397843131675403,0.03286733209299962,19,18,26,38,4
0.00022647009570423828,0.000522904645832087,0.014104795665148254,0.03179748569590384,18,16,24,34,4
0.00023910078025584616,0.0005271411680001604,0.01411437622189813,0.031142196431372903,17,19,26,41,4
0.00023687742914745455,0.000514918610327402,0.014211740226560307,0.03170095684631806,18,18,28,37,4
0.0002462163265858546,0.0005166684333013381,0.014069713178567672,0.031524463367516,17,18,24,33,4
0.00023905599711007016,0.0005371190388330604,0.01419828008680819,0.03206635911184667,18,16,22,34,4
0.0002388284354939366,0.0005163096391796729,0.014066651250957567,0.032736607354088926,19,14,22,34,4
0.00026452901947241495,0.0005617815105630622,0.019977070000147607,0.03261005270492382,16,14,23,31,4
0.0003287142479464519,0.0005682323717760661,0.022742703896134465,0.03239090191964217,17,14,28,32,4
0.00033574690287258626,0.0005483418339165198,0.022997963130503386,0.03317046252254154,14,18,26,37,4
0.00033800414218098664,0.0005529533632210206,0.022705677994457673,0.032905976662770474,11,16,24,35,4
0.00023614705260395182,0.0005127348169195239,0.014187053868656062,0.0333358326908831,18,18,26,42,4
0.0002416003173352229,0.0005273419957033694,0.01427536787335388,0.03243168883716301,17,16,24,43,4
0.00024066948156804924,0.0005061812620497576,0.01439823065737676,0.032725940009086046,18,16,22,39,4
0.001691250932422895,0.002304292962530352,0.1747784301114932,0.2333155487774457,16,22,47,57,0
0.0017668717813549403,0.0029182060264277792,0.18205827655814838,0.3105376069908589,18,20,47,60,0
0.0019302934606696689,0.003341527376502828,0.21232475956472188,0.327986038199669,18,22,56,58,0
0.0013742724272520093,0.0027155415350585774,0.17507034590842924,0.30398811344089743,20,22,56,63,0
0.0015507425842303845,0.0030274255981867075,0.19732460602553617,0.3030463003785211,18,20,58,63,0
0.0017645853410429443,0.00259411469886417,0.23598171061203324,0.25418540199956147,24,24,57,65,0
0.0021048005077986703,0.002117826183771392,0.27161442983971895,0.23784900244097976,18,24,56,66,0
0.0024728584603301022,0.0022517897692610313,0.2926510788986632,0.23788614966402605,20,20,52,66,0
0.0027047423703933427,0.0020385453611785963,0.34668437299076277,0.24266248317879768,20,24,56,65,0
0.0030193361583882306,0.0024469400896621417,0.3443150447743752,0.2733080982158166,20,28,58,63,0
0.0029723288745653253,0.002695341081098875,0.3444116528565404,0.2947023170302539,20,24,60,61,0
0.0027991167647109416,0.00248479294109508,0.3600897136065832,0.293877941076272,20,34,61,60,0
0.002629898590740506,0.002736278578090902,0.36350132187500545,0.30336256262002664,20,30,64,58,0
0.002932811398159668,0.0026522584906364765,0.3945374176249355,0.30228655498146273,18,30,62,61,0
0.0029896266606135686,0.0026522106087441696,0.3837016748948724,0.29038718736876257,22,28,58,58,0
0.0028873554469449614,0.0026556005623075553,0.36834543567666805,0.28123134342998735,20,28,59,64,0
0.0032731476760439805,0.0025153171410397124,0.4053797974727084,0.28553484205876745,16,20,51,72,0
0.0030867868817858308,0.002649503861360682,0.3987958769268794,0.2918104068501094,18,26,55,68,0
0.0032594129776245453,0.002580033976083065,0.43139764921113183,0.2941648012810317,22,26,52,68,0
0.003243862905515944,0.0024803691999788664,0.4408690259234623,0.3100406580789807,22,30,61,65,0
0.0028916808203135434,0.0023822660472484626,0.3774939737013551,0.32816055562862967,20,30,62,64,0
0.0028335837348664504,0.002083942243638181,0.36856522626717886,0.3073799611255689,22,32,63,72,0
0.002324326526172821,0.0020668549930223665,0.31627246179481294,0.312393776096725,16,34,71,72,0
0.001972520848530665,0.0021884243805413463,0.2697138198082447,0.2963834627293241,20,28,71,72,0
0.0011176184190673036,0.001261017810024373,0.14237657417319055,0.16647839149920377,30,32,67,75,1
0.0011595781775995027,0.0012583022752864087,0.15846089908810987,0.16086535618755368,30,30,72,70,1
0.0012040202438215284,0.0013576752261737013,0.16350443156275737,0.157924406615189,38,25,69,69,1
0.0012877033686080164,0.0012257139134126827,0.17608717621893338,0.1471765466428681,36,32,72,64,1
0.0014121384618901612,0.0012960098891425212,0.1956151242556214,0.1788031385892164,40,24,69,71,1
0.00134209143539131,0.0014563341014727901,0.18460297940682582,0.19135596516499867,36,32,71,70,1
0.001332228936242204,0.001437234701151632,0.18366765473239174,0.1940848938156146,34,34,67,81,1
0.0011713517020119594,0.0013441865296993831,0.16406926861445456,0.19030151985724383,32,38,62,82,1
0.0011482945307071963,0.0013000595026362888,0.15905240311423383,0.17060437718240642,32,34,58,77,1
0.0010947786198288716,0.0013070701774993935,0.15332402314903584,0.16268847959886582,30,30,63,78,1
0.0010170724285736776,0.0012741041815089685,0.14534945277661304,0.16839077741623792,30,32,63,77,1
0.000968040833984776,0.0013486454049962018,0.14533265338700804,0.17251885808245487,38,28,71,68,1
0.0010474787514388006,0.0013544423614496063,0.14502417657489722,0.17786475165229293,28,32,82,71,1
0.0009465127311452362,0.0012379953056520106,0.14120899090925532,0.1742724234552675,38,34,82,76,1
0.0010532512065993154,0.0013449256512978714,0.15703059410775044,0.17644096222276612,38,32,80,77,1
0.001031822097684467,0.0012988656771293241,0.14273840958866102,0.1835290314885623,38,26,79,78,1
0.001096722683404483,0.001367243822451303,0.15089392685561276,0.18117974539096332,34,30,75,82,1
0.0010625556793304944,0.0013775852509701383,0.1435132191709594,0.17578007165683998,24,26,73,78,1
0.001020247234553286,0.0014260555517741594,0.13625244618118743,0.17535398975262032,26,24,76,72,1
0.0010028596289372203,0.0015249456417423428,0.1370252661107351,0.1787450779943628,24,26,70,70,1
0.0008287632608535864,0.0015157291143985743,0.11965362897561858,0.17360231571326268,32,24,69,61,1
0.0008686459387513061,0.0014063408346264683,0.12347915739360646,0.17944471646218935,34,28,73,62,1
0.0007928123739947847,0.0015444190738240604,0.1138440220848268,0.1750299037270719,40,22,74,69,1
0.0010100428526745341,0.0012379053328050627,0.11700517386066853,0.1455719109230043,36,26,73,73,1
0.012236656241500695,0.00114418289278134,1.7837926744516153,0.17241972757516283,32,40,70,83,2
0.011703619181066776,0.0012842386572086315,1.7449658679079578,0.18346945044241442,26,32,79,81,2
0.012435594721407681,0.0015103984787547245,1.8493648387195127,0.20777309673042124,36,24,71,83,2
0.011722874512077314,0.0015462933401987477,1.8764488206023597,0.21021915763758398,28,32,68,80,2
0.01188584442116701,0.0016853424855300737,1.7682529820332415,0.2250313307352909,26,26,69,77,2
0.011802977894453105,0.001539247500757476,1.8472838891595098,0.2198589027100129,30,34,62,75,2
0.011471315827858493,0.0016754841241423085,1.8067213790527468,0.2013399635087858,30,24,66,73,2
0.01089141547406823,0.001535723456761551,1.634385257943338,0.19428979552694783,30,32,72,80,2
0.010146385996769387,0.001475801158387578,1.5961511170500464,0.17643276700370109,34,20,74,79,2
0.01031021290681046,0.0013339331213561786,1.5449737093751181,0.1634136401458094,34,26,72,83,2
0.009242232174787651,0.0014576553676936641,1.371078093225752,0.1715617218497264,34,18,73,81,2
0.009506037958612696,0.0013861877565744974,1.4411253787581237,0.17311700818972492,28,26,68,70,2
0.009519929277096762,0.001347397377610719,1.4866238717611104,0.1792266089174334,30,26,58,75,2
0.010561148412576276,0.00213311980626123,1.6265087524686832,0.2230435547851628,26,28,61,71,2
0.010306445702759612,0.002228998567034061,1.5725719684489885,0.22220320306865254,36,16,68,71,2
0.011077410912082723,0.0022116006787235493,1.5674428920199337,0.22405118843520805,34,16,67,69,2
0.010848864881955933,0.0025222852710486787,1.6468653614346558,0.2513987199103283,32,18,74,67,2
0.01007164316126846,0.002156498551480597,1.492799049402202,0.2300833675713628,36,24,75,66,2
0.011186259289798517,0.0022841061477068053,1.6478804367803936,0.2549715977161228,30,26,68,66,2
0.010946062902917449,0.0023169349679075914,1.58228371990174,0.25358682314847775,32,22,65,68,2
0.011370620514288072,0.0021386971615991266,1.5212720411114113,0.23964391771458604,32,22,67,72,2
0.010302252153714647,0.0020311226558390573,1.5238334325116127,0.23470978054999497,28,28,76,67,2
0.009451758359836644,0.0017888401446385606,1.4109459243327456,0.21293427198618717,32,30,79,70,2
0.00923308158751916,0.001877182253450024,1.4163259796128709,0.22652725648566135,36,28,72,67,2
0.0031869161881377716,0.005510722362299439,0.3505110046809129,0.6491612424059598,22,24,45,70,3
0.0032769464644294764,0.006084889528521795,0.3313484291528258,0.7303775824198661,20,28,48,62,3
0.003336999565283133,0.006346038674754231,0.3448401702636645,0.743905032348495,18,28,45,60,3
0.003423990714763663,0.005428821982741094,0.33185792097678707,0.7084680355254277,20,32,45,58,3
0.0031490253334177736,0.00578511160422025,0.3235760482209202,0.7734629154789916,22,28,55,61,3
0.0030526919533600374,0.005596644515855123,0.3276233212362433,0.7315537046190491,18,30,54,63,3
0.0025219337739074976,0.006664609914433153,0.2942399723186239,0.7184597863222636,20,18,63,55,3
0.002443234229799112,0.006026328233436124,0.28301091160800174,0.7164770686389971,18,26,65,55,3
0.0029024478243858654,0.005893046729753025,0.2861941607432999,0.6656462251698712,24,18,67,49,3
0.0030319844406367347,0.005517152619356871,0.32248921990362683,0.6427302873154068,24,24,66,56,3
0.0032644087955510416,0.005506954774080494,0.35674271563211507,0.6876947774238457,22,26,58,62,3
0.003484324939348989,0.0070476553706029935,0.3834753021102319,0.7496146116294975,22,26,58,58,3
0.0031039766159171424,0.006807412501789865,0.3626226816652763,0.7667880067471708,20,32,55,55,3
0.0026757357252418616,0.007432711795607217,0.3129192114792669,0.8405006258071301,16,32,57,57,3
0.0025980158596475393,0.0072711915224429125,0.32860103439799077,0.8228649566592602,18,28,60,59,3
0.002603124548565168,0.007413059878472254,0.32571660982121886,0.9093368437337636,18,28,58,66,3
0.0024571549580657166,0.007386394941520392,0.3023035829412273,0.9610021073756456,22,30,59,66,3
0.0022884139400610893,0.007557586333884359,0.29385275375006253,0.971295475218752,20,26,57,56,3
0.001728464912977379,0.007630682459619393,0.2310533179548948,0.9650068322547408,24,24,59,53,3
0.0015922832416117763,0.007619913332462081,0.21086681489934922,0.9909239744050141,22,24,58,54,3
0.0018790373155212572,0.009027847943345131,0.22773832106895245,1.0851632758534853,20,24,58,55,3
0.0017165076389909616,0.009434418170868921,0.19541286789824777,1.1359730894616669,24,24,60,57,3
0.0018216382088025588,0.010414787048169559,0.21124726835800256,1.210484495646002,18,22,65,53,3
0.0016137989144524559,0.009812159728852349,0.18879571164078235,1.1088182548285241,18,26,64,54,3
0.00021628956072288622,0.00048380232155087065,0.013230439641862374,0.0393657495951442,18,20,34,53,4
0.00021365118443629938,0.0004859383993123459,0.012991178047074238,0.04108266694536466,19,22,28,56,4
0.00021325597492943954,0.00048656142477573357,0.01283659387138184,0.03659234685044007,18,18,28,56,4
0.00021485408155791144,0.00044505751007404995,0.013029192663511413,0.038878051100717424,19,26,28,57,4
0.00021670940186024337,0.0004562230390840551,0.013135377000609535,0.04000925833450693,18,28,32,67,4
0.000219727573506288,0.00047376097363844265,0.013217782501554212,0.039553765637959405,19,22,30,69,4
0.0002192409161995142,0.0004886162126722317,0.013393992965825333,0.04203685897960327,18,30,38,75,4
0.00022250998648047534,0.00048579811149994503,0.013764518435289454,0.04330305874063107,17,22,32,62,4
0.0002227469531672412,0.0004866755474005558,0.0132851760739368,0.04268556823831006,20,22,32,64,4
0.0002247127067183944,0.0004716548724344176,0.013003370046193457,0.042905594153692196,17,20,30,67,4
0.0007011770472100014,0.0007434102086316549,0.042876033168271335,0.06301237735566799,5,18,37,56,4
0.0007271958770641014,0.0009513481367639119,0.04708396946897915,0.07762037251342054,10,22,32,50,4
0.0012090157017327211,0.001037370531463038,0.06876112794330656,0.08280253954395256,8,22,45,55,4
0.001190922104577019,0.001119572012908863,0.06873370590711499,0.08715231977598459,10,20,49,51,4
0.0007994293711812541,0.0009169891176780493,0.0451428063417895,0.07049901803278034,6,16,40,50,4
0.00022904605774403365,0.0009104301869334047,0.015240679039149507,0.06389267520969792,18,20,36,45,4
0.0002501659350510912,0.0007914251177303908,0.015528071932057057,0.05845127028367603,14,18,32,38,4
0.00021689715066570953,0.0008893874943548752,0.013385535157528444,0.05595746204813851,16,18,30,38,4
0.00022602255397582527,0.0007965777233156277,0.013171948894345635,0.05223880567032852,18,14,30,36,4
0.00024013777665300357,0.0006987414030943949,0.015642548796075795,0.04708879966244217,12,16,30,32,4
0.000239153389514518,0.0006389931019105266,0.015185119256615233,0.043293459302693876,18,14,30,37,4
0.0002181687748869769,0.000560620680642189,0.01466116272414346,0.038159140668009094,20,16,30,39,4
0.000212666156296718,0.0005328775580942984,0.014300265742561798,0.034652528478690756,20,16,22,38,4
0.00020124091038864315,0.0005301083556307786,0.011947451441706053,0.03796427883311519,18,18,26,35,4
