f1ch1,f1ch2,f2ch1,f2ch2,f3ch1,f3ch2,f4ch1,f4ch2,Category
0.00024266839257552317,0.0005290234283330566,0.01507963060687183,0.028357919332077226,22,14,56,39,0
0.00025075765846667,0.0005731947577422369,0.01634501819085921,0.030526961319325925,21,13,62,34,0
0.0002710342230269065,0.00046891815623440977,0.021451304004870216,0.03279607364172622,14,16,63,35,0
0.00043165983183293574,0.0005104239844942343,0.05039232350606661,0.03492793360891987,17,13,63,40,0
0.0005788244848232059,0.0007201093802871969,0.06739297435961422,0.04912491417472094,18,12,67,45,0
0.0009226540967378835,0.0008192528793691226,0.12191240855925531,0.07042511045824211,24,16,72,51,0
0.0010749596724901132,0.001101553702985896,0.15902782516261285,0.0967502403810995,28,18,83,47,0
0.001403903611828355,0.0013680625263799925,0.2093394059276766,0.12555423503556726,24,22,87,44,0
0.001786444663098925,0.0015373705964920343,0.24617020773828877,0.1477283556039925,30,20,89,48,0
0.0018410563009953168,0.0014973018593745623,0.2809129168181356,0.14621319328842405,34,18,91,54,0
0.0021721126374644258,0.0015519426731697718,0.33198018766514004,0.16001942500024505,34,20,84,54,0
0.0021321140153153203,0.0016473894044953471,0.3404695042375545,0.16594322436596246,34,21,85,56,0
0.002154037996534219,0.001606387863245604,0.3721486516784087,0.17138229607824088,34,22,86,55,0
0.0020364143244584465,0.001853733890830606,0.372575393566201,0.1899969568725167,50,22,91,51,0
0.0016370912799687559,0.0019518819629489978,0.33915048002830567,0.18107005250871605,50,20,95,41,0
0.0015112919652935535,0.0018064427460069282,0.2968368720297634,0.17750879647672854,44,18,83,46,0
0.0015048382575677307,0.0016403458556354016,0.26236943522446415,0.1723506938277757,34,16,78,51,0
0.0011727081006016908,0.0016281632795855042,0.21889988981630168,0.17308279443188282,40,20,82,52,0
0.0012461177541469998,0.0014336036636649384,0.23815774407486712,0.17910211541277343,34,26,75,56,0
0.0011920251234843755,0.0015350357297444527,0.23745452995129926,0.18570201609823836,36,24,85,55,0
0.001115361786812623,0.0018143961392051169,0.21873202551460827,0.1978962318089106,40,24,81,48,0
0.0012585635790229174,0.0017300458339381227,0.23014762343338419,0.18813964174463668,36,22,86,54,0
0.0013469200868150696,0.0017615300741834442,0.214079623064429,0.18348401634193542,44,20,84,55,0
0.001359866144081401,0.0018000005391160445,0.21062362346049512,0.18199834929582331,34,22,81,57,0
0.0014220246132540305,0.0016460651266378646,0.21135249327773903,0.1676356109602279,33,30,89,58,0
0.001225346811529688,0.0016815937760092305,0.19966083067913654,0.1649750864511481,34,29,91,55,0
0.0010182830144782812,0.0015607830943335328,0.17081633717843916,0.16126616122254328,37,30,89,54,0
0.0010863716754555294,0.001717225647845615,0.17085190294508065,0.15657897935694165,36,26,88,53,0
0.0011772131344064093,0.0018056559011932242,0.1777029928569468,0.17481776948041006,41,20,82,52,0
0.0012588217027563145,0.0017150004262413568,0.17932948888519926,0.17814444142497193,38,20,81,53,0
0.0012992813151574093,0.0018294138928963905,0.19111659904168551,0.1837832967669317,37,16,78,48,0
0.0012043691487976143,0.0020527046454505327,0.18260737689317907,0.20513157273744692,32,20,86,45,0
0.0011523441058277862,0.0017713747915216003,0.17126649195790475,0.18222260286575356,35,22,84,51,0
0.0013398104935199214,0.0016363188735414608,0.17436865975557114,0.1875721531821077,18,24,87,51,0
0.0013202505152466626,0.0016910452137688355,0.16252510432109787,0.17898946602832017,27,20,87,52,0
0.0012149951050998782,0.0014113338692897698,0.1556737041220038,0.15995765146321314,28,24,85,59,0
0.0010682173513925492,0.0015257430694809342,0.14158751357467925,0.1817616598064301,36,24,87,57,0
0.0007553740460314785,0.0015464099414937316,0.12012617425575495,0.16700544430996542,40,28,96,56,0
0.0007775559453523581,0.002003497881287617,0.11866440783450603,0.1992535202268899,38,22,91,55,0
0.004922439946306408,0.0016871828556643761,0.30725724969310597,0.17466241461603502,4,20,70,53,0
0.0049390752959206806,0.00115105675826059,0.2893838708117072,0.116565213082137,4,16,79,47,0
0.004709130416204354,0.0009836537658818969,0.26589759775406985,0.08740594002989951,4,14,71,41,0
0.00038332970737804575,0.00038951046829568703,0.027349985966148828,0.02652565603460722,12,19,51,34,0
0.0005023999256247723,0.000584692510454219,0.04717819342197745,0.038830209691637925,16,16,65,34,0
0.0010409407989090966,0.000815827992590676,0.11295478059065334,0.05933126292275405,22,19,69,42,0
0.0013872015259804753,0.0010131702742135719,0.14271662595690615,0.08237140199352905,24,20,75,44,0
0.0015171932484619884,0.001173353578929231,0.17030167626932724,0.10536473439770558,26,18,75,54,0
0.0016845410019814553,0.0014028178271216277,0.2070949721801252,0.1426195551064929,30,22,84,58,0
0.0011026565603714724,0.0007759241266078652,0.15607550401891032,0.08333693482422463,24,20,73,66,1
0.0012849342466529944,0.0009835268208340819,0.16866121820102126,0.09397735070513524,26,18,79,55,1
0.0013355667143714392,0.0011919050156138909,0.18697278648708995,0.10066494553475996,34,18,81,54,1
0.0015535514946481142,0.0011789571308490302,0.2247999905131016,0.09360727822692912,36,18,81,55,1
0.0015527795878998712,0.001122635753810684,0.22938390200123596,0.09502729074734337,34,24,82,63,1
0.0016834759485594745,0.0011873029781281018,0.2350344598033807,0.0987036212183224,28,18,80,65,1
0.0015359312903753266,0.0010170160409305117,0.23226985155807944,0.09495175152442588,32,18,77,63,1
0.0016630577275150882,0.0008682955539290313,0.24742485014449397,0.09427191014463797,34,22,74,64,1
0.0016796864386475244,0.0008405468112673781,0.2513915207788033,0.09108225111338128,34,20,72,58,1
0.0016719797383703094,0.0006797080675404302,0.2566972313248116,0.07991964885864566,32,28,75,71,1
0.001703140921284717,0.0007655658202190263,0.26272600781900274,0.0831177022892967,28,30,72,71,1
0.0016323498944491735,0.0007656531995670721,0.24326138069166955,0.08004420782028797,30,30,73,68,1
0.0016166879748081373,0.0008129980012821414,0.2437477919388744,0.08184585101763546,26,30,81,59,1
0.0015433107820976815,0.0009319562130041607,0.22720099090323267,0.08223213882079952,32,23,89,67,1
0.001440700895015178,0.0008414229670524651,0.22690228979850185,0.08656184326168294,28,26,95,64,1
0.0015911130400900156,0.0008303850914772505,0.23220537534949082,0.08681965883164074,30,20,95,63,1
0.0015625785407573378,0.0008814757519754221,0.2329864225911917,0.09482097137893214,36,24,86,66,1
0.0016657608159791092,0.0008025779725388646,0.2505630567342881,0.08603239650655699,36,22,79,67,1
0.0017337009500068632,0.0009240697135758858,0.2403269455077469,0.0846490671322272,32,18,80,58,1
0.0015714959301647551,0.000934636309269786,0.2355063792728546,0.08400692153901108,33,22,83,55,1
0.0015073096005103453,0.0008884439113211491,0.22660168808658376,0.07761001392516362,34,24,81,50,1
0.001401502623375189,0.000996182093520869,0.19637837539276717,0.08918281309649671,44,20,73,53,1
0.0015373364429259362,0.0008754373459727089,0.21855002180138022,0.08235429739708039,34,20,74,54,1
0.001396263985550409,0.0007251707926935421,0.1924153983416666,0.07968083687315476,42,20,71,65,1
0.001400005207471721,0.0008908070316670122,0.20792127931915005,0.08852839390752779,28,20,81,65,1
0.001521174185486426,0.0007141764319462282,0.22106216074578694,0.08081991893029773,36,20,83,72,1
0.0013686646084258213,0.0008145487165523174,0.21531217299112046,0.08485030949307563,36,24,77,62,1
0.0013406436015181477,0.0008299938423972504,0.21514431181943072,0.08448055120912251,40,30,77,63,1
0.0014393840697329997,0.0007627210176752664,0.20909849455766943,0.08060505660808952,32,24,78,64,1
0.0012874290086362324,0.0008442873274367855,0.2048040307245534,0.07968841312873876,44,26,77,62,1
0.001182153304307606,0.0008157338968920688,0.20194126293109546,0.08020864786682168,40,22,83,69,1
0.0012750139031531763,0.0008723481674735267,0.2129053300820539,0.08582231866321041,40,18,80,68,1
0.001418071169913374,0.0007767386291311744,0.22520251044181536,0.07748280864178751,34,16,79,70,1
0.0015208385361501645,0.0007407466812452924,0.22615589182714388,0.08110075330409007,38,19,83,76,1
0.0015826317633648606,0.0006371333647052986,0.23576545643355276,0.0755343019482763,34,22,83,67,1
0.001485313907394291,0.0006169763650968095,0.22476048434848042,0.0729412927796676,32,30,85,69,1
0.0015257114273133903,0.0006222052345221746,0.22857123462112253,0.07109149285121047,28,28,79,71,1
0.0013517648816188932,0.0008896006985456314,0.2112426372972644,0.08062367175350889,28,14,80,63,1
0.0013226324471429895,0.0008669596989648051,0.1938238850676745,0.08196299335685339,24,20,80,61,1
0.0013811512315551585,0.0011209803095634972,0.19869123912916462,0.0949898399780357,24,16,74,57,1
0.0014178170010463126,0.0012394993648249524,0.16462265738182325,0.10512101846961307,28,16,75,48,1
0.0015138755521295242,0.0009248114224864743,0.18900245492744108,0.08824152048485731,22,22,68,54,1
0.0012795275187922192,0.0007571820519514992,0.1740504553925433,0.08043935274961678,30,24,71,65,1
0.0014031563371580877,0.0008851531760667567,0.19319997882718562,0.09176718561823169,30,26,72,54,1
0.0013539985095996562,0.000964390579130915,0.2097980888180778,0.1051026967417022,34,24,78,59,1
0.001163718255806532,0.0011523374951403506,0.2128449150684383,0.12015387702910355,46,20,80,52,1
0.001250538547572083,0.0012595137601931427,0.23881592737623628,0.12619859218497143,38,20,83,61,1
0.0013092315633952275,0.0012169985094225538,0.24900712776080067,0.13582876310673836,38,24,86,62,1
0.0012516430570784056,0.0004682583142213468,0.2165735203904541,0.044239056000236254,32,16,88,67,2
0.0013301058497671508,0.000528403760126102,0.24319983495970163,0.0524853921349244,38,24,94,58,2
0.001586695141869433,0.0005816589285256487,0.3151384289948775,0.06480839645798686,32,22,94,65,2
0.0019788560896132363,0.0006945926337307484,0.4034191257708583,0.07447542801438646,38,28,87,64,2
0.002418420205772019,0.0006907666886697035,0.4782258315194564,0.08284025448911558,38,26,92,71,2
0.003046369587396291,0.000797059481150723,0.6007164889704565,0.10235479289060789,50,26,84,74,2
0.0031775311993132377,0.0007782245140949731,0.6481068894129084,0.10669772922935611,50,34,89,75,2
0.003387130187600963,0.0008321792220302635,0.7307348999227226,0.11114858284162393,52,32,92,74,2
0.003422928105502039,0.000726723030228476,0.7311841222882425,0.10554449255586384,54,36,86,76,2
0.0032988606111266435,0.0007370280379519874,0.6941883725361351,0.09397213017732031,54,32,86,75,2
0.0033052191763249614,0.0007636172768995278,0.6727174204782882,0.08909921486177902,54,28,89,71,2
0.0029697419800635417,0.000803816835154054,0.5815655116867031,0.09043387252041231,48,26,91,64,2
0.002759732909529082,0.0007705983941909598,0.5487729747050668,0.09130082219259694,52,20,97,62,2
0.002618666475042108,0.000759149526360737,0.5579138988696352,0.09534810875659486,46,22,102,60,2
0.002601819935670383,0.0007063617805180862,0.5466151533520804,0.09051773457690138,48,26,102,70,2
0.0026215432978694666,0.0006654799935743241,0.5324430136605338,0.08739225624868599,48,26,99,68,2
0.002395526887189999,0.0006456199046889359,0.509278623986909,0.08473377374009189,48,30,99,72,2
0.002297478829750867,0.0007207097959697702,0.48186003417450723,0.08884960398152646,42,30,94,70,2
0.002059123694330929,0.0007577034586876859,0.45694043035194337,0.09637255009410663,46,32,98,66,2
0.0020412033843296303,0.0007949775550824238,0.45644962987052323,0.09998057356252864,46,35,102,65,2
0.0020248731558326558,0.000789260283969747,0.4534771617690925,0.09838343620859347,50,32,95,70,2
0.001969541144523001,0.0007036722615472982,0.43441128273246804,0.09251923641572299,52,36,98,71,2
0.002022728091455487,0.0006635827722192253,0.399482926873686,0.08494929115014944,48,30,91,71,2
0.0021444033769845976,0.0006871932191933308,0.4100134138395664,0.07988685208300475,48,33,86,74,2
0.0018636626014791086,0.0006573965619157933,0.3799442200199828,0.0846878490375774,52,24,92,69,2
0.0018972720750990752,0.0006113375834992045,0.39221925455093365,0.079622398487018,48,27,96,72,2
0.0016978479116864123,0.0006724805859942798,0.4055257329740043,0.08365302380825536,60,24,103,71,2
0.0015745836489470444,0.0006423674458229132,0.3573800492498959,0.0757698783029635,54,31,100,69,2
0.0017049489875674542,0.0006090346489480966,0.35946688642715136,0.07401893074311647,38,30,92,72,2
0.0016388268796748101,0.0006492455754089732,0.330772683365735,0.08016861095632001,44,26,94,67,2
0.0017292630880748419,0.0006540360299636539,0.3256638126430736,0.07244935979630017,34,20,89,68,2
0.001619545583430179,0.0006427828500868604,0.3287004657660764,0.07335593978069077,36,25,84,75,2
0.0014906774362411653,0.0006135437701179252,0.3154690919501345,0.07025733042845854,42,22,89,75,2
0.0014030255750350667,0.0006123979508844351,0.3060830906282385,0.06911173258123443,42,27,87,70,2
0.0014175913369217322,0.000575998796599118,0.2917849215633148,0.06958296707607751,46,26,90,66,2
0.0016940450777817066,0.0006230601859292911,0.32072745161415805,0.06617420187655297,48,24,92,62,2
0.0016544433456362278,0.0005538994262494553,0.30799368947989836,0.06284119688297142,42,24,89,65,2
0.0015396494233316119,0.0005331346274692018,0.2893494936322227,0.05776713006923564,44,31,87,60,2
0.0014684121842250223,0.0005546747206499496,0.28477662784358077,0.05418861057691165,38,28,85,64,2
0.0011592778998881545,0.0006809489964467665,0.22363003059190267,0.05788167442172718,44,24,86,55,2
0.0011103565723933264,0.0006652010303933949,0.20352029782031608,0.05168587464555311,42,20,87,53,2
0.0010478316922782635,0.0005959168161024319,0.20976343837892003,0.049173537526886475,50,23,86,54,2
0.0012433702988147587,0.0004903039133810514,0.22987281447886482,0.045709721214261284,38,22,81,58,2
0.0018526013794252527,0.0005249459972185334,0.34154220638761235,0.05239905077989924,38,22,78,64,2
0.0024031935790588413,0.0005371333988527141,0.42118542712276996,0.058967048393349986,36,26,81,66,2
0.0025132039080162346,0.0005499023092767893,0.46459335669106583,0.0643870976716238,36,26,82,65,2
0.002812989146756159,0.0005712322388101916,0.5027522802042598,0.06842757211288802,38,22,89,66,2
0.0024714024251544413,0.0005108264410800217,0.4239857033804435,0.0690730173411265,32,32,87,65,2
0.00019973454950199368,0.0005603625795874322,0.016601025917212475,0.03923082689490235,22,18,56,43,3
0.00022496897890695366,0.0006349061502178501,0.021009561114870245,0.0537858788281518,26,17,59,47,3
0.00024010711087273735,0.0007823916263615313,0.022170448155012245,0.06834852727835175,20,20,66,48,3
0.00025954938680095274,0.0008345888207564922,0.025542705253646367,0.0762494732570597,20,22,73,58,3
0.0002646841214608681,0.0009074764275829395,0.02712900366089916,0.08636050983368426,20,16,74,61,3
0.0002495563016648835,0.0009903465692654224,0.02593417784135998,0.09167406405505521,22,22,76,64,3
0.0002604789193003058,0.0010998134228679714,0.030651935899273508,0.09576900251747751,22,16,78,59,3
0.00028729220000113054,0.0013020878339894116,0.033966088914048134,0.12047574752789295,23,22,79,56,3
0.0002931561181284935,0.0011871019160469628,0.03812951829291007,0.12692803629293592,28,22,80,52,3
0.00030741698374466995,0.0012225289645736636,0.04308378371230472,0.13731934423868297,36,22,78,54,3
0.00032549008100087387,0.0014669985641163794,0.04616063615599338,0.16309587539630696,36,18,76,59,3
0.00033186963236412313,0.001346082479125831,0.046110312032526524,0.15410682178533824,31,22,82,63,3
0.0003522104906168791,0.0013983506039960385,0.04608848699700324,0.1669545398848138,34,22,76,64,3
0.00035397909819181826,0.0012836090567635472,0.046511427452629914,0.1650478403018174,29,26,72,65,3
0.00037585802412061156,0.001254475401436622,0.04283374916933881,0.16271029451097285,26,26,74,66,3
0.0004025986629306065,0.0011630742373754152,0.05148264178462974,0.16029837830446927,30,24,74,70,3
0.00042000159621696125,0.0012463939705247532,0.05764635241290743,0.16356511654995706,26,24,78,71,3
0.0003774596901817941,0.0012040394741662866,0.05846399514607952,0.16623644842832672,34,24,82,72,3
0.0003900991182287064,0.0012304205965471564,0.06120918716338975,0.14738751458066549,28,24,89,69,3
0.00043009581541008973,0.0014207288855229668,0.058300680130264806,0.15870497137282333,28,24,89,68,3
0.0004533914677845751,0.0015148900512970244,0.0574663968436832,0.16103697817128643,28,22,78,65,3
0.0004882304341865394,0.0016140057391888466,0.05851584516932443,0.16771177682212396,22,22,80,66,3
0.0005160471228663966,0.0015475852884340733,0.06419862779240343,0.17309365380314112,24,22,78,65,3
0.000521531337470408,0.0016372315495564065,0.06617528017005156,0.18707076574696974,24,22,83,64,3
0.00048275164749042907,0.0012845622089074536,0.06945162330586988,0.1653252591652427,30,28,83,72,3
0.00048295461115018825,0.0012655291907929433,0.06910941428700565,0.17225744310733973,34,30,88,69,3
0.0005269626091178433,0.00147964757744537,0.07655479291320834,0.1818037846887175,30,22,85,72,3
0.0005023955062092088,0.0012906546657193737,0.07361800242488586,0.17130147424683714,35,24,82,71,3
0.0005320102016126354,0.0017957585944711868,0.08023973028137146,0.1900320665054674,38,22,83,66,3
0.0006110410888008989,0.001698781401497379,0.089088479906346,0.18855125952654736,31,30,80,62,3
0.0005599613879527563,0.001939099434578958,0.08475193680037717,0.19690243446220324,30,24,79,65,3
0.0006148535268521865,0.002001393383477204,0.0872432262054438,0.19462794584495763,38,28,75,66,3
0.0005477516970208946,0.0018930805746451532,0.08125184224128079,0.21045775314215626,30,30,75,69,3
0.000580249943965503,0.0017966089053123517,0.07386930379607791,0.2034352330202391,34,26,75,70,3
0.0005088433213803687,0.0017033305426530016,0.07100870155289785,0.20462926372080983,30,22,80,70,3
0.0005108720411192668,0.0016774984747957428,0.07613978951186978,0.21482694364735103,34,28,80,66,3
0.00047548653918700316,0.001662157453630324,0.07778014555902943,0.20064341181215034,36,26,75,63,3
0.0005443827387677694,0.001948409525132709,0.0868010614809785,0.2184985907863934,32,22,77,59,3
0.0005810888858282349,0.002015713336439509,0.08753202536806637,0.21985914523662417,28,24,75,65,3
0.0007588277601474221,0.0018458982226041334,0.08505729641754346,0.2010272489942449,22,26,71,57,3
0.0007037360957590357,0.0016412386616498412,0.07221910208392879,0.16127228903340782,20,16,75,63,3
0.0005841346566909772,0.0013452621524624273,0.05694691541963667,0.12980960517095289,16,18,76,65,3
0.0002996496891954915,0.0009890973397977244,0.03415727156523881,0.10541253437079616,25,20,86,55,3
0.00032123112354049397,0.0009733691221240166,0.03543023591635785,0.10802171810195148,24,24,89,61,3
0.0003401541513170175,0.0012031375361587827,0.03886548007459165,0.13961387745132944,25,22,82,52,3
0.00033404461205359317,0.001594414303988636,0.040327491439228216,0.16990220740701564,28,16,75,59,3
0.00035745674994941954,0.0016791227448698155,0.04478403212040644,0.1923576641915888,31,20,78,60,3
0.0004620727732405618,0.002141375286787766,0.05504700549446779,0.2387591689135919,22,24,74,64,3
0.0003656473374616643,0.0004105794855113885,0.0217970179558311,0.030445353558308064,16,16,60,42,4
0.00030783144913375704,0.0004054089183460035,0.019955074002477098,0.028981045019648915,14,16,50,30,4
0.0003073029056489408,0.0003913521072718997,0.018791782114116997,0.025679266592331464,11,18,57,32,4
0.00015987812834938975,0.00038710527675762024,0.013247721414755153,0.026036171630304174,18,18,64,34,4
0.0001497268175233866,0.00039034934588543673,0.012774028291874006,0.023931030845964436,20,18,60,26,4
0.00015907384498534528,0.00038882229783203224,0.013366682938928594,0.02438142180811571,18,20,60,26,4
0.0001613996353800228,0.0003801258249304069,0.013474926127444642,0.024382977093197023,18,18,58,26,4
0.00016825506751290767,0.0003764900096733054,0.013909716828711338,0.02420008730977442,22,18,56,20,4
0.00015022100085750002,0.00038068801720098056,0.01358872054927902,0.024007642805242643,22,18,52,20,4
0.0001513710718677619,0.00037321430988062455,0.0136375518983806,0.023714980108517778,24,18,56,22,4
0.0001484412577600432,0.00036501123786916083,0.013888778543350093,0.02447091715664754,22,18,57,25,4
0.0001481123583706098,0.0003651417500805651,0.013448236323636363,0.0242895955748476,22,20,58,24,4
0.00014679956314423868,0.0003666626525652924,0.013685528286068439,0.02477861203872726,22,18,57,26,4
0.0001455374196198329,0.00037436742235311495,0.013590211181407104,0.024737236768316434,26,20,60,26,4
0.00014777626996093568,0.00036085637961054884,0.013495594673936148,0.02393148514800169,28,18,59,24,4
0.0001480277615143496,0.0003573994118957049,0.0137469351164206,0.0241815118682414,26,20,54,24,4
0.0001515123982617676,0.0003558660260466797,0.013476469821348397,0.0239079852189511,28,18,51,22,4
0.00014990632991375303,0.00034276948737799184,0.01362495574546856,0.024344571605916118,22,20,50,22,4
0.00015741942471835034,0.0003494453138618166,0.013488464205419012,0.024820077602341773,24,18,55,24,4
0.0001543983109607562,0.0003462584979385473,0.013370406112528788,0.024567844481820762,26,21,52,20,4
0.00015960766800477723,0.00034348479520935704,0.013426359532249618,0.024809181115485777,22,18,53,22,4
0.00015642655072792763,0.0003388812698047264,0.013290908123529236,0.024376147427951658,22,21,54,20,4
0.00015515077078668714,0.00033931402734967635,0.013610865792736728,0.024227073997008537,21,18,58,24,4
0.00015502231238324952,0.00033701840523311287,0.0133677160908749,0.024083792905727576,18,21,62,26,4
0.00015733631290602458,0.0003348125559737902,0.013381795088163862,0.023829032042071947,23,18,56,24,4
0.00015527315484169962,0.0003320359273314441,0.013467729377159817,0.023455601680560552,20,21,61,26,4
0.0001558735811767556,0.00033399396809805353,0.013595415677356936,0.023213652665920466,25,18,58,22,4
0.0015209728818262613,0.0009223792474529018,0.08576360816119807,0.05231646633259891,4,8,108,21,4
0.0028607194680251584,0.0017419869345290044,0.15556655460386135,0.09407966941113927,5,7,84,45,4
0.0030422231351307154,0.0017666864669291472,0.16149161266520182,0.09276109617619695,6,6,58,41,4
0.001811960407716127,0.0012926493491636376,0.09690165653356077,0.06992321868424596,4,6,62,49,4
0.0017158826733430724,0.0012351012753634481,0.09570665729239856,0.06646749421593798,4,4,44,53,4
0.00018718879323559868,0.00028669072505285053,0.015173710119735312,0.01924685326215333,18,12,51,55,4
0.00018850254637944294,0.0002660331640585309,0.014886792693959471,0.018156198418933202,23,12,50,48,4
0.00019828862684832387,0.00022273560488499474,0.015235486680740146,0.015975147156521853,22,12,46,45,4
0.00020162772428349227,0.00021225093087694116,0.014957792900365868,0.014947055141008043,25,16,47,40,4
0.00020031419743698518,0.00019670086989332706,0.014736742130590312,0.014334647375668547,20,20,41,40,4
0.000202014745283263,0.0002168395032878139,0.014955825879041389,0.015880139930883563,19,21,50,40,4
0.00018993365110198945,0.0003146131188522211,0.014610063244749331,0.019786051102275957,18,16,46,46,4
0.00018940718819581405,0.00033613378427605465,0.014363170859704984,0.020713974170815767,17,19,50,44,4
0.0001867519387805976,0.0003376417475551036,0.01466127476012628,0.02129706777760634,18,14,50,40,4
0.0001863119541558174,0.0003243731794739274,0.01449641169163114,0.020339940416536084,19,14,48,40,4
0.0001918428148065275,0.00025008069846589343,0.015122504845061497,0.016946201475549823,20,18,49,42,4
0.0002089362500069252,0.00023910980603398054,0.015224786703381829,0.01672181908430082,23,21,47,34,4
0.0002198519369066727,0.00022574855484883995,0.015694855087035643,0.01646584374300101,18,18,40,36,4
0.00022480118123014683,0.00022853433650389923,0.01575990465397966,0.017054584454102188,17,19,48,36,4
0.00021500342937923772,0.000226473585693056,0.015046177491502036,0.01697868631407129,20,16,46,34,4
0.00020378957934634012,0.00022047251084385876,0.014202599848696382,0.01640576337712083,17,21,46,34,4
0.0011574853624650406,0.001757948218652944,0.18261001522062328,0.18526400954453104,32,20,75,54,0
0.0011173839054731724,0.0018924734871077359,0.1622250046121562,0.20813033753588994,32,24,83,58,0
0.0009531740126289788,0.0016242590470004498,0.16580696409375342,0.1995942760719565,38,30,85,56,0
0.0009313684283105615,0.0018986803392504734,0.1604910527773015,0.21125024820828694,36,26,87,59,0
0.000788116112643605,0.0019717345947813363,0.15396185115715905,0.21847722047395873,36,26,93,51,0
0.0009157035356626214,0.0017258112747888168,0.1702993448051932,0.19435085637473454,38,28,89,54,0
0.0008596867829292358,0.0019162874232925315,0.15968304325600552,0.21386844214560272,42,26,87,60,0
0.0008589418235857052,0.001993794195222675,0.15671023619849833,0.20408401175783192,38,24,86,57,0
0.0009126422617313413,0.0019111595023171809,0.1536612466075412,0.20708166034150766,44,24,85,54,0
0.0020804241504299823,0.002582747652845569,0.21654115220142747,0.22758872430405647,14,20,73,46,0
0.0023013878286078007,0.0021506295889830718,0.2532119679584944,0.19889709212541873,20,16,73,47,0
0.0022494938680195924,0.0019947671829476355,0.25274567737730647,0.18694758007451065,18,16,77,54,0
0.001428390815870005,0.0017077788265943486,0.24077623475089938,0.16274310954437782,34,14,80,58,0
0.0012446663660304214,0.0014171588522438477,0.21565138909086784,0.17161308652025353,30,20,81,65,0
0.0012266475468120594,0.0015045360220209989,0.20449568126480505,0.17077791745340123,28,20,83,63,0
0.0012550091874394226,0.0019213201135832379,0.2018732885093065,0.200556389913496,28,22,84,57,0
0.0011133510203927407,0.0018738746046058396,0.1971533273855655,0.19450669020275654,30,16,90,57,0
0.001117632464293621,0.0018147670519213308,0.1948550744117766,0.1890317895487697,36,20,91,53,0
0.0010010482027599185,0.0018437314747355722,0.18889738351768007,0.19279450733323888,36,18,94,58,0
0.0011074576445742482,0.0016785575212928986,0.18378214566664508,0.17624630123583407,38,24,82,62,0
0.0010109049999898166,0.001887843260156815,0.18334165341189917,0.17805681734186923,38,18,94,53,0
0.0010449245393085933,0.0017832963175310735,0.18814852130960869,0.17513173698281298,36,24,91,53,0
0.0010772144136432006,0.0018966190081243983,0.1985225841324853,0.18568601071347784,38,20,89,50,0
0.0010890683600201664,0.002055525481745765,0.20946488580148273,0.17667539822104944,42,20,95,52,0
0.0011068648903965667,0.001882498965216968,0.20693810807789506,0.18338068978535618,42,20,93,58,0
0.001078036798409703,0.0019290088494284055,0.19086253266879932,0.17419680750790736,44,24,89,61,0
0.0010221821771740115,0.001864394093024725,0.18193980364492854,0.1707375240872252,38,20,94,61,0
0.0010116261574990388,0.0016714073661651852,0.1700172042189807,0.17999690456614365,38,20,95,65,0
0.0009491517409666634,0.0016018796530569757,0.16129582654354355,0.17821985331037254,38,22,95,58,0
0.000870693905436266,0.0017567204101289354,0.15209438065756095,0.1858967646948239,40,20,97,58,0
0.0008190859011243601,0.0017551792341526096,0.15184344411682846,0.17856310094140557,44,24,99,60,0
0.0007537048968287659,0.0017589722068341437,0.14537448650782986,0.18134734246019202,46,28,93,51,0
0.0007877841058248874,0.0017597992380177182,0.14950535860845296,0.1770259146143815,44,32,90,57,0
0.0008777428652157118,0.0020708128555974154,0.16267831216958256,0.19033502742865321,48,26,80,52,0
0.0008641622657192534,0.0022081685287122198,0.14495894094330877,0.20192794400108935,40,24,79,56,0
0.0009476143822715257,0.0020665895782229155,0.15076681973059844,0.2027100076236328,32,20,87,50,0
0.0007771229043498425,0.0020434749500460323,0.13356173029324517,0.20381217975662255,42,20,92,51,0
0.000824888925471989,0.0018816344292894643,0.1471137654730562,0.19765449554573,42,20,95,50,0
0.0007361207175712189,0.0018766507558441081,0.1441025533708661,0.20737067585153848,38,20,94,51,0
0.0007443834074096385,0.0020668443766097082,0.14613599521026235,0.21588159423725825,40,24,85,55,0
0.0007498073924465099,0.0022332853097810496,0.14420660779051658,0.24298010550105775,38,26,90,55,0
0.0007277868149397164,0.0023532562317088368,0.13899657015671843,0.2555447539171433,44,32,87,59,0
0.000779110122468293,0.0023842851830425133,0.13556225265552266,0.26328196195458753,36,22,88,60,0
0.0008348623117300015,0.002325297937949523,0.1459687833779888,0.24396575033809711,34,20,90,58,0
0.0008378119399847749,0.00206423180645775,0.14981153977208342,0.22796282543603175,38,20,90,61,0
0.0007651826819101814,0.001973036202888634,0.13148565684359675,0.21371890363230114,40,32,97,57,0
0.0008306055954308218,0.0017631202383371247,0.1518180792484877,0.19710972286722583,42,26,90,59,0
0.0007295305922533298,0.0018129336881211589,0.1294145605856403,0.21219021326820292,38,26,88,57,0
0.0008259641865187464,0.0017237164441298537,0.14997436184020557,0.19113043908167304,40,28,82,61,0
0.001398624219723653,0.0013320811372510067,0.18595673340709956,0.12027450137914796,30,26,77,55,1
0.0013944913755036192,0.0013624899988075299,0.18295078485014069,0.1205548890839207,24,22,79,62,1
0.0013572871779772093,0.0012819028309122718,0.19908132362327619,0.10831167291755556,26,24,73,53,1
0.0012988637479413043,0.0013098385664880572,0.18958834765506458,0.12079845488275269,34,22,72,56,1
0.0011044550171338313,0.0013182130975008886,0.16945725624048896,0.11811339099163451,44,20,73,58,1
0.0011870552568164997,0.001118771253460533,0.1663111408786704,0.11623590488310914,34,20,78,58,1
0.001126620523749055,0.0010263999800847246,0.1535015392646028,0.10965047573184075,36,28,74,58,1
0.0012878918711392074,0.0009211272766174684,0.16362334430232944,0.10154738923321568,30,24,68,66,1
0.0013141965499206387,0.0010506561654503616,0.1668685930236976,0.10749051217691723,28,18,67,58,1
0.0012764878589782461,0.002528463905732601,0.15875147652903687,0.17225463727798615,24,6,61,68,1
0.0010848766053373176,0.0025758372702292982,0.13415905073096634,0.16083485924559715,20,6,54,67,1
0.0009204565908744916,0.0023756169149766167,0.12170247280407026,0.14356355013507135,18,4,66,68,1
0.0009302870810284443,0.0005043428332874522,0.10340563235724606,0.052140493997321076,22,18,72,56,1
0.0010192568696142947,0.0007247940981486349,0.11373235577895387,0.06611632653007815,22,20,69,50,1
0.0013091180101839487,0.000870298715875236,0.14266613778881365,0.07855460933764304,20,22,73,51,1
0.0012684439603729532,0.0009945262868804902,0.1634657769443179,0.09344389939634816,28,22,73,49,1
0.0014367212850231075,0.0011965025130921158,0.21360507634586876,0.10501470745583366,32,20,80,47,1
0.0017631474886253865,0.0012386154963408024,0.24650023242715022,0.12065671500401969,34,22,78,48,1
0.001836353211893825,0.001411604154025242,0.25638519345784105,0.13200108450991893,30,28,78,46,1
0.001840477616899117,0.001486151709110101,0.264199485759299,0.13546778334587595,28,26,78,58,1
0.0017580133592403145,0.0013694777844847203,0.2525510756906599,0.12301018988435783,30,26,76,54,1
0.0016433196076788665,0.001375122016810791,0.25077535203824936,0.11824462604191488,36,22,78,54,1
0.0017697124940850907,0.0012675387757980056,0.2726647140950934,0.114518626173814,32,20,79,68,1
0.001736336433277277,0.0014002263679227167,0.2726397717700279,0.12006541753032494,34,18,76,57,1
0.0017266555126056304,0.001445658092327378,0.27747455665863086,0.12882591963701007,36,20,75,54,1
0.0016627295854036268,0.0013443372572241594,0.2639122807617191,0.1274246120616844,38,20,68,51,1
0.0014819569295254898,0.001346778008317278,0.23667066321418576,0.12667224349669942,38,24,67,53,1
0.001379540329502719,0.0013673129427291307,0.22153138465663658,0.1259684145288896,38,24,67,55,1
0.0012746158559501148,0.0013296857549422003,0.2002145972547001,0.11781917514292788,36,18,76,56,1
0.0012724859258948257,0.0011548011302671506,0.20390442414355708,0.10486980971946411,36,18,79,65,1
0.0012768397322720094,0.0010701165672763859,0.19633295887043412,0.10399103147005523,32,20,75,65,1
0.001198311405204195,0.0009486065034972494,0.1892914641514661,0.09411811495798857,30,24,83,66,1
0.0011867784577571942,0.0009726538377004186,0.18610880619981002,0.09297796056197494,32,16,80,65,1
0.0012761649895438392,0.0010484018613590436,0.18704099313458944,0.09316963760494626,32,12,83,56,1
0.0012312764659557658,0.0009682440283844922,0.18951455609960147,0.08627476246252541,30,16,86,60,1
0.001198534882678924,0.0010146730456561915,0.1788461768464114,0.08460507965422459,34,14,86,64,1
0.0012388713751556142,0.0009378395044607571,0.1723321179678284,0.08242697077328409,28,20,82,62,1
0.0010982397435790384,0.0009233446784670197,0.16744459711426063,0.08660171316804166,28,20,79,65,1
0.001019737529580492,0.0009009619349640542,0.15132373756933734,0.08377624963462842,26,18,73,58,1
0.0009223363763112066,0.0008275256718569264,0.1388480564442518,0.08041865460262007,32,21,81,60,1
0.0008235833736063923,0.0009346089515781795,0.12703861893481425,0.08565892797169522,30,16,81,68,1
0.0007862461376047453,0.0009540006481194906,0.11902170555668665,0.08124432886921971,38,16,80,63,1
0.0007822564759526552,0.0010610870387823103,0.11562683735264498,0.08477463723019708,34,12,83,60,1
0.0008809973355688664,0.0009715119554208912,0.13138434375344443,0.0843086713054079,32,18,80,66,1
0.0009114458570079406,0.000987218055898539,0.12921566237189483,0.08946064412514886,34,22,78,56,1
0.0011569663142887072,0.0009435659576876549,0.1518957803718784,0.08949924122503168,38,28,75,53,1
0.0013541498732324532,0.0009091505125476273,0.1712376005201004,0.08504781875735759,26,24,70,58,1
0.0014009648307673755,0.0008031516572625981,0.1791335845090382,0.07895821745297892,24,18,67,51,1
0.0014518830588546435,0.0007519179538031756,0.1880305849870117,0.07360422466126706,26,20,66,57,1
0.0025804099601489917,0.0005837562061639372,0.5286235935120686,0.0710320852486409,34,34,96,73,2
0.0024485692331584004,0.0006055312181938549,0.5322505680917231,0.06794423279830283,44,30,100,68,2
0.0022734063512773405,0.0005621957799627119,0.49442411273663406,0.06813718816929656,46,32,99,69,2
0.0023701188227634984,0.000542189526836662,0.47037189246205136,0.0655628196926279,46,32,93,74,2
0.0021560762113850915,0.0005657018185860374,0.4467113067620705,0.06483034168658794,50,22,98,68,2
0.0021487194667490143,0.0005653290751482829,0.42748194552187097,0.06545653676349858,44,26,96,68,2
0.0022089690606722093,0.0005219997214100474,0.4244375223549274,0.06616930570404628,38,32,94,68,2
0.0021104693560228573,0.0005348264552530059,0.4179348880573131,0.06720463114219377,48,32,93,65,2
0.0021392132582224014,0.0005251966062130489,0.405836045650377,0.0679207371358125,42,24,86,64,2
0.0019951054506318626,0.000614750254689527,0.35438146924968905,0.06567222972047401,42,20,83,58,2
0.0018501782468935092,0.0007397986684304932,0.33165937981930704,0.06397973890985115,40,21,84,50,2
0.001705749304644055,0.0008833352331774178,0.29816843029629775,0.06927138835990805,40,16,86,43,2
0.001465044306089648,0.0008399747739242968,0.2789661006266045,0.06592635166356459,44,17,85,40,2
0.0018814600467640741,0.0009207874473768436,0.36011033177768453,0.07244721707319096,40,18,93,49,2
0.0020959537550744494,0.0010496447662885326,0.40525315674878204,0.08103528265554895,36,19,94,58,2
0.00239372346645087,0.0011486854074848596,0.4649785975907553,0.08503918738638273,34,18,93,69,2
0.0025263810798257223,0.0012252770573005544,0.49108143617471345,0.09010515044642921,42,17,95,64,2
0.00234535732908557,0.0010948234888847282,0.4606830658862462,0.09194716750374188,46,16,96,65,2
0.002830010024479563,0.001133233107519092,0.5639201844216338,0.10060757596827388,44,21,98,65,2
0.0027510307330590295,0.0011284593594717864,0.5562445160303786,0.09902588166647759,42,22,98,59,2
0.002849483257195293,0.0011262373740837564,0.5682019296253409,0.10177556642066986,42,29,95,58,2
0.0028879835586864823,0.001150589601956363,0.5776153986566065,0.09794818840560342,40,20,88,64,2
0.0022648172304161624,0.0011115321589493742,0.46324795298764204,0.0879727502264938,40,17,90,63,2
0.002391073050676596,0.0010256909744161971,0.4759192360559619,0.08463383280752347,40,18,89,60,2
0.002434062309844948,0.001009993786509736,0.46931736110099526,0.08424250734488622,36,23,86,60,2
0.0024430016580435834,0.001008897468603499,0.4573495070926153,0.08838792839263765,38,24,87,57,2
0.002504378933939653,0.0011458944750294539,0.48975286287693304,0.09358951917083735,38,21,88,59,2
0.0023699129498130312,0.001148013102259343,0.4496824323629233,0.09533470107997916,44,24,93,53,2
0.002242957718260955,0.0011807290614177994,0.46481976625408206,0.09469254205520243,42,21,98,53,2
0.0024211319322533943,0.0012638226919942752,0.4692365881717266,0.09900019105807961,44,18,100,58,2
0.0022500323330557083,0.0011352536412942433,0.446337557153014,0.09421226749668297,40,17,104,57,2
0.0020483984251579083,0.001177081070143611,0.4169510444069934,0.09077274505529741,40,14,104,59,2
0.001851506667290686,0.0010382469401849302,0.3926079964035073,0.0841296593832918,46,15,105,60,2
0.0017492890182230602,0.0008058334894931346,0.3580703648870164,0.0648183609527761,38,14,98,68,2
0.0017603867184549946,0.0004909402335651046,0.3653245596003075,0.05427195768839237,48,27,94,77,2
0.0018280319980876543,0.0005843386055931732,0.3836211819822134,0.0570279809962673,42,24,97,69,2
0.001904570881763802,0.0005129148952978573,0.388783709503542,0.05625185948724085,44,27,97,66,2
0.0019882054965134096,0.0005366810379624302,0.4218201498042965,0.05955858039902793,40,22,96,60,2
0.0018299206584983991,0.0005706358186983677,0.407135985276511,0.06313631559984774,46,29,97,64,2
0.0019459396685554773,0.000556734670119016,0.40198336152910585,0.05829435421500975,42,26,93,67,2
0.0021063025864667627,0.0005208505879858234,0.41614796099109586,0.058265645061792506,40,28,94,70,2
0.0019195768221398634,0.0005879893868459428,0.3804777089380952,0.05942881931150651,44,18,95,72,2
0.0022831042370681834,0.000558149023388531,0.40997564645214496,0.05704109928702045,36,33,91,72,2
0.002114437853500704,0.0005967253942578844,0.3900148064505015,0.06748375870399052,36,22,92,65,2
0.0017166729211093642,0.0006733051151022822,0.3308490882673807,0.06802252708153045,40,19,97,64,2
0.0017921793529129025,0.0005583791933396314,0.32300139683850415,0.06858345394521893,38,22,95,64,2
0.0015482828435962324,0.0006257047912587828,0.2842173002285913,0.07443185757898375,46,29,97,58,2
0.0015820686630506995,0.000582422420951338,0.29775247139895566,0.0688991139264368,48,20,102,63,2
0.0014731908013396922,0.0005224914973485595,0.29762138915848463,0.061780397288824576,48,29,102,62,2
0.0004449173993896063,0.002139545853421964,0.05399491794920269,0.27052046575241606,33,30,72,56,3
0.000524807396385223,0.0022790284000545817,0.06036422928642466,0.2912630014656734,28,34,71,54,3
0.0004870308249767814,0.0019216965261722957,0.06092141789324948,0.2636106444569718,29,34,72,64,3
0.0005539363322575722,0.002108548175077612,0.06766889338981892,0.2903706241696606,30,32,71,59,3
0.0005317818408583414,0.0019963627631249484,0.07054559434566106,0.2787276380172425,25,32,75,60,3
0.0004936168452945417,0.002046222793084819,0.0604285007312891,0.2587547414669818,20,24,73,53,3
0.0005117638229223742,0.0021279700067444503,0.06227493786126397,0.26758074044028113,29,28,77,57,3
0.0005003190191084222,0.0018891222539065206,0.05486235130865931,0.23519944338746815,18,26,71,59,3
0.00043021510766340983,0.0017925458990498224,0.05642924342568702,0.22322716910577822,31,26,77,59,3
0.0005928493203984488,0.0015131996507953918,0.05708478315106691,0.177301937352982,20,20,59,61,3
0.0005655576049739627,0.0011093399945872856,0.04839137314340882,0.13691008962033846,18,22,53,60,3
0.0004920570914945355,0.0009476609839014034,0.039269920898639135,0.1045779092702436,12,18,48,53,3
0.0001880664790801512,0.0007066025327522427,0.01705460031955753,0.06637273783293919,23,22,59,39,3
0.00019488595871486607,0.00075730239563367,0.019044308279149626,0.07356678788131472,22,24,66,43,3
0.0002184037642663663,0.0007452148215642364,0.02201404545813659,0.07641052335936917,24,20,70,49,3
0.00025169560019674085,0.0009561743461261304,0.02403770390738808,0.10324086643334564,28,24,73,57,3
0.00026770204775782746,0.0010865352523808708,0.026537569926867708,0.11528735749217472,28,26,73,62,3
0.00036981065119740143,0.0015369586385483589,0.03322767140197448,0.18797863902482115,22,22,73,62,3
0.0003692082092589729,0.0022640271112738847,0.045712928593461655,0.25784989611587333,34,26,82,61,3
0.0004029717928201092,0.002579019229194689,0.05375444831322211,0.31161788080316766,28,26,82,61,3
0.0004524951226204323,0.003053317470703143,0.06256418769503923,0.3390490135719819,28,26,88,64,3
0.00042776508211528,0.0027035331656366595,0.0650455813780678,0.3000777402099441,30,24,87,71,3
0.00042346617382975175,0.0025550033191582607,0.061622471539753046,0.27720608085538073,40,26,87,66,3
0.0003680011247168002,0.0024109880681541847,0.057678992383337645,0.25676494124851934,38,28,93,63,3
0.0003370121986460296,0.0023009149629376656,0.05386692782699138,0.253738250327942,42,28,91,64,3
0.00033806635117153704,0.002838997433822757,0.05479172992320953,0.28644137723631014,34,22,87,59,3
0.00032564168476053717,0.0027118897521191763,0.05361060026894466,0.3005973956690075,36,24,89,62,3
0.00039617270558209446,0.00284677956502594,0.05682696585121932,0.32947995426423926,36,28,81,66,3
0.00040552235976005704,0.0028010561543584038,0.0598053849567656,0.32139505274799707,34,24,73,69,3
0.0004272252080216511,0.0026103985568161903,0.05796516309512124,0.2991251248097909,36,28,71,68,3
0.0003963830028038851,0.0026744888653174037,0.05690431223444165,0.2797581065947596,34,20,74,64,3
0.0003720989896714021,0.0025837172229321932,0.05696166638244043,0.26700577864500596,30,20,72,62,3
0.0003692621205464855,0.0030243138543455533,0.05551799538823263,0.2848117095188632,28,20,76,60,3
0.00037838379575752556,0.002963796368126042,0.051640233943309535,0.26057525490681765,26,18,75,55,3
0.00040203830769864344,0.002744475822961517,0.05108693887009254,0.24525854617080464,26,18,65,60,3
0.00039311735190852956,0.0025401365002030297,0.04820928285729493,0.21939996089201774,22,16,66,65,3
0.0003720862496434566,0.0019028307632915772,0.04602979118228336,0.2040526846053129,28,20,72,62,3
0.00038781079090763457,0.0019855071677017666,0.05030948471973607,0.22548478355800244,30,22,75,67,3
0.00038909716237971013,0.001970779682320784,0.05494565340040075,0.22646658680357223,30,22,79,67,3
0.0003782295361431655,0.0017556458164282246,0.052191198752173214,0.2111868140648269,26,20,77,72,3
0.000366934478152226,0.0016123393835285216,0.052446538374384594,0.20308405854463824,32,30,82,70,3
0.00035886300759824686,0.0015597185734669006,0.050441361934805314,0.20894563786223658,28,34,82,66,3
0.0003321767844213008,0.0017366010094730904,0.04276659096273999,0.2053428204528715,24,28,84,66,3
0.0003663350175385316,0.0020637651294726817,0.04494909177216875,0.22384270358555244,24,30,78,59,3
0.00036748543194836745,0.0020161006732497483,0.043704844707878616,0.2069539855885577,28,24,78,56,3
0.0003286367727402291,0.0018900458988537,0.0419210459279151,0.1997224449072591,32,22,80,56,3
0.00029908236135811085,0.0020144788084448845,0.04064001603053424,0.21464941387504144,30,28,80,54,3
0.00027683351903062337,0.0017834074405455307,0.03909630012877266,0.20533820402506991,30,34,80,55,3
0.0003087813621071828,0.0018484427772933046,0.039906662753056925,0.22137966877092988,28,24,83,57,3
0.00021363960767309918,0.000366679168599551,0.015542624699868713,0.025824197866041086,18,20,48,52,4
0.0002054276501483104,0.0003421723687386002,0.015003083950087115,0.025217830324749793,18,18,50,41,4
0.00020272662609866353,0.0003738568756328428,0.01490949552806686,0.024058301621347325,20,12,54,40,4
0.00020267300336008573,0.0003692339654030451,0.01523211591109305,0.025066542283274516,20,18,45,45,4
0.00019814286631419608,0.0003507747333383938,0.01601044783038498,0.02342238897045748,20,20,48,48,4
0.0001933538713185177,0.0003488271312828393,0.016186878097002946,0.024126972178772875,22,18,56,54,4
0.00019361021863027253,0.00034268569744669774,0.016215801021000772,0.02279553200502566,22,18,62,49,4
0.0001848644800588442,0.0003438412063914884,0.014964066325759215,0.022585477585150178,18,20,54,49,4
0.00018062112562478242,0.0003394950499015843,0.014558117959273503,0.02241833371575993,22,24,50,43,4
0.00017522346003300386,0.00032893273407137594,0.014532090091410387,0.021459756016953057,18,18,48,42,4
0.00017301540428935026,0.0003286320912527233,0.014697861843932108,0.021268774909026258,20,14,46,50,4
0.00017532969978176376,0.00031051817377266675,0.015023141785540687,0.01984348130786004,18,20,44,44,4
0.00017461371686522845,0.00030754272807577334,0.01464239749275525,0.020980893695081642,20,20,44,46,4
0.000175504494896321,0.00032862503404180565,0.014171040137374908,0.021155284092664674,18,18,43,42,4
0.000174421088071372,0.00030205247162241124,0.013591691378496697,0.02165885171799994,20,18,40,40,4
0.0001739703470782331,0.00032773806499710926,0.013176000772439467,0.021850515271247282,18,20,38,42,4
0.00017711454167055148,0.000307176453774199,0.013357326680257003,0.021192601940330662,20,24,44,36,4
0.00017538506949779328,0.0003134137887008475,0.013257511190250374,0.020535617004060012,20,18,46,36,4
0.0002819665686500147,0.00038150507041818346,0.022386483155790338,0.029584629589939532,22,20,34,28,4
0.00038335193157056085,0.0005979218076735185,0.028170908278946954,0.03842545597491944,18,16,37,37,4
0.00046115898431152024,0.0007109492139234633,0.03542767300616507,0.04439694143983143,18,12,39,33,4
0.0004709058350675852,0.0007118501063350978,0.03513496657685501,0.04207167625697097,18,12,39,39,4
0.00037643163645658295,0.0006392692369740609,0.030512346823563675,0.03652813709527158,19,12,53,35,4
0.0003257656438662791,0.0003485460544261287,0.02553091638637748,0.023878583907285263,18,14,57,33,4
0.00032303547804949924,0.00033389539652207463,0.02324262105680831,0.021317656059819765,14,18,53,35,4
0.00031236531071608236,0.0003233562435014575,0.023463732341624726,0.01972102241103256,18,18,49,32,4
0.00030581449933951116,0.00032124258661257336,0.02060891904280448,0.01954289112031687,20,19,40,31,4
0.0003020054595773998,0.0003103793418796583,0.019191661659626023,0.019830901310678918,20,20,39,34,4
0.00028711401702626824,0.00029264095335204964,0.01813048605218834,0.020027034805187,16,19,38,34,4
0.00027977681909497465,0.00031585649123146956,0.017054528441314266,0.019856766203054942,18,18,41,33,4
0.0002683336899094441,0.00031681135312016897,0.016819714299567048,0.019262024894709,18,17,33,26,4
0.0002716459499770146,0.00030671408745753343,0.016828800027409274,0.018742045270105215,18,18,32,24,4
0.00026811517817404196,0.00029983744214875414,0.016611256508053198,0.01809211339600214,16,16,33,24,4
0.0002677219949816579,0.0003020836101103212,0.016757523983474066,0.018061716247899713,18,18,27,24,4
0.0002698625362677419,0.00030827636374360545,0.016552760737600824,0.01798310121049838,18,16,28,29,4
0.0002632999284548862,0.0003045835807942898,0.016406208402851553,0.01799209657693545,18,18,29,23,4
0.000267844432736956,0.00030110410919697,0.016335554575367627,0.018076253371308217,16,16,27,20,4
0.00026278080451571176,0.0003050687108418404,0.01640810185998476,0.018213357722374864,18,18,29,24,4
0.0002665867823579517,0.00030618687933501963,0.016458827685685518,0.018172222241898423,16,16,29,22,4
0.0002631513230405269,0.00031528505462310037,0.016315811144042954,0.018143866196898287,18,18,35,22,4
0.00026267967833901136,0.0003103992461534733,0.016233658281871656,0.01825317297729064,16,16,33,26,4
0.0002568105923139319,0.0003049969683561504,0.016006347094900678,0.01817891329971845,18,18,32,26,4
0.0002526133787951586,0.0003062271524370124,0.016181700868394332,0.018403797460503427,20,16,31,23,4
0.0002542455394092571,0.00030726953404177547,0.015943036117965503,0.01786934100031808,18,18,30,22,4
0.00025503198178637937,0.00030914601363556896,0.015869386076012716,0.01796009772875519,18,16,28,26,4
0.00025579469873105825,0.000315004643943507,0.015781610361764845,0.01820532825188214,20,18,29,28,4
0.0002526323825908797,0.0003116879668161255,0.015818440039133744,0.018352557932394074,16,16,27,28,4
0.00025542743028457627,0.00031152620526289074,0.01598933295147457,0.018423525509896663,18,18,33,28,4
0.0002537544865806647,0.00030995593414893886,0.016174801731449653,0.018376150455537057,16,16,37,24,4
0.0012278292788605284,0.0016709975975137997,0.1939929292791722,0.17401948858657865,38,24,80,54,0
0.0012619555463041872,0.00183956795588718,0.20716782538966627,0.18939204669529708,44,22,83,51,0
0.0013239359195422627,0.0020360694553765678,0.2210790043863837,0.21058472260741334,40,24,90,49,0
0.001900226505267195,0.002012495554306406,0.2447783205893633,0.20610183992746475,30,20,91,58,0
0.0018546462468562736,0.0018424180354609928,0.24594360309939636,0.20524658091424597,36,22,89,61,0
0.0019354885167044583,0.0019427571304362922,0.25080852134713905,0.21354971516821494,32,26,91,53,0
0.002343724551299249,0.0018478601317735083,0.2662839598623701,0.20938021434780435,26,26,83,57,0
0.0014176610716174092,0.0023494285905554793,0.2321312165602877,0.2223790157910393,42,20,81,55,0
0.001565485524921691,0.002025225063808693,0.2572096084436574,0.20615472477527666,38,20,87,58,0
0.0014802121420852165,0.0023317917970729187,0.26074589841037044,0.21599614653174107,40,18,89,61,0
0.0016616508612033447,0.0021934797116002617,0.2613104243333417,0.22809062658274665,30,24,86,60,0
0.0017615195950232711,0.0022454311447388147,0.26780595360676007,0.22564298163879837,36,22,84,58,0
0.0016863940236419889,0.002254402493170111,0.24738309572225095,0.24216427304560484,34,26,83,54,0
0.001449573064224659,0.0022136738035256525,0.22870422241515528,0.236419146783643,36,22,84,55,0
0.0012762622433512688,0.0021574462529716154,0.2179707238063301,0.2340194762062299,42,24,82,54,0
0.0013029590598332772,0.0023156039480449722,0.22620795337388638,0.24136994105811813,40,22,81,49,0
0.0011674478509812625,0.0022990727737193977,0.20342699154330432,0.2389729909201949,38,24,84,50,0
0.0012219918411923672,0.0023281751133129446,0.2073073176405548,0.24407315658602743,44,24,84,48,0
0.001201475364173577,0.002249431832879073,0.19821022766609234,0.23348583435800568,40,26,88,49,0
0.0011720674337433795,0.0020115083773226913,0.1921578864809942,0.22736996550653055,36,24,87,56,0
0.0032401115361135008,0.002043577558892088,0.322060970140007,0.22016594536761802,8,20,73,47,0
0.003857893745314084,0.0018564720570642054,0.33094603789697263,0.20841593741638126,8,20,73,46,0
0.003920632091088824,0.0019840211053431776,0.32979493617374733,0.20356284982117986,6,23,63,49,0
0.00351637015902478,0.0019420693766100375,0.3190159796766535,0.1953399881703728,6,26,66,49,0
0.0016074933752193382,0.0011552945434718106,0.2719132641362467,0.12894739149072798,34,28,81,63,1
0.001674158767672681,0.0011843510707582473,0.27213479471570196,0.13210631185189614,34,26,81,63,1
0.0019833554001132594,0.001261406258126966,0.297116285903386,0.12615206561340067,28,20,77,58,1
0.0020968810971445434,0.0012341037654364543,0.28728650217428187,0.13417280396483194,26,28,71,64,1
0.002115937090225096,0.001262350770161022,0.28882686140237834,0.12622717337316072,26,22,72,62,1
0.002174776193123752,0.001477175851489732,0.28419224422727296,0.1370927492711011,24,26,69,58,1
0.001958371139718871,0.0016322644428943742,0.2585470964736883,0.15067844941175157,34,26,71,58,1
0.0017677744759284156,0.0015770331333784147,0.24462344574587208,0.1457952831980482,26,24,72,57,1
0.0015752176625717187,0.0014976242716850205,0.2197701631248317,0.15028474427825037,28,16,72,59,1
0.0015742884689889185,0.0016114546568628332,0.2310494863636786,0.16275864312693014,30,16,79,51,1
0.0013955060144534947,0.0014109481226886834,0.20371691601854233,0.14088728806373593,30,18,73,64,1
0.0016741045012044246,0.0014665389702065712,0.2344942892761744,0.1345250929979944,34,20,72,59,1
0.0016653518176613508,0.0015679121621266067,0.23582594375945345,0.1316447428805937,40,16,72,59,1
0.002023188555984312,0.001329331563458208,0.2285469896664598,0.1106213387763445,30,24,68,67,1
0.0020665354305409982,0.0012744014768958215,0.2378096227072537,0.1214411600274892,32,18,71,62,1
0.0018199759854404586,0.00122488819446693,0.2169468146885276,0.12853173369514354,28,18,76,66,1
0.0017658821566620966,0.0012013294915455286,0.19909599241559886,0.13293003196418365,24,24,81,61,1
0.0013496722987005863,0.0014017614746005117,0.18560475178945654,0.13579171204721005,28,16,82,56,1
0.0012556044628016755,0.0015060624864779578,0.18545135861091444,0.1240196015195671,30,14,86,51,1
0.0012302078014389864,0.0015117368598493509,0.16730321059286402,0.12179841349641361,24,20,84,61,1
0.00133525399178639,0.0014067653094473242,0.169167426506791,0.11787175425735272,26,20,81,60,1
0.0013651387537853177,0.0012733062346498975,0.17020284281747952,0.11650586870683223,36,26,82,56,1
0.0013789664857214836,0.0013515177412302814,0.16198492296326034,0.13109852196990104,32,22,76,55,1
0.0014533008326872389,0.0013553603271859408,0.1798680067131523,0.12311403383041702,30,26,77,49,1
0.002612204070150252,0.000607327158714377,0.4600555173175506,0.07485418330183075,36,28,84,66,2
0.002643779120955044,0.0005707075284689374,0.4731133255434364,0.07555190988164959,38,28,92,64,2
0.0024396790756668544,0.0005685459275168231,0.47241509468637766,0.07252974345899384,36,24,95,63,2
0.002334406346861696,0.000556812153093208,0.48263192498870233,0.0681106264548329,46,28,98,63,2
0.0021467758669026548,0.0004869159873167405,0.4343025515415608,0.06123251839548704,40,26,92,68,2
0.00197988826106452,0.0005119885062681757,0.41113683686348096,0.06541427256657287,46,28,82,64,2
0.0018505779921416732,0.0005471002765192124,0.364685785475269,0.06542257607495239,42,24,82,64,2
0.0018996862418476199,0.0005593427708113611,0.35186958722882833,0.06526973942473521,40,22,83,68,2
0.001713117801745651,0.0005962609884855164,0.31436557401244847,0.06479767724436496,32,26,81,67,2
0.0014939351841390558,0.0005041725971766494,0.280449503299571,0.05999545514936097,42,26,85,62,2
0.001533911941573095,0.0005200023419976906,0.27710337586835254,0.06146137419671329,42,28,83,62,2
0.0014429700711913373,0.000551081407787606,0.2717101021511436,0.06302402831971447,40,24,84,61,2
0.001492163030356396,0.0005555216058366042,0.2861168284034753,0.06338642661540374,48,26,87,62,2
0.0013850580115429894,0.0005250345954390509,0.2688273014406172,0.0631439639200364,44,30,92,63,2
0.001467255993194805,0.0005435974886224891,0.28139421781220886,0.061824142945092746,46,28,87,61,2
0.0014250029791467425,0.0005125064883567557,0.292983822805999,0.05911133375672668,52,28,94,58,2
0.002091480250571212,0.0004803853233677529,0.4010685017183184,0.05738255234890367,40,26,93,60,2
0.002489160959492178,0.0004710604106547174,0.4981931598885823,0.05371487698371316,40,22,92,70,2
0.0027654773580165514,0.00047433177977485746,0.5364399822082933,0.05631824094164662,42,28,89,64,2
0.002901640704903852,0.0005550518206878732,0.5928175221436007,0.06082831485717696,46,28,90,63,2
0.002508458390162784,0.0005742068714202284,0.4961740637277246,0.06806197541138395,44,32,92,62,2
0.002342656066947052,0.0005469075104564683,0.46252384102288063,0.07325841676970665,44,36,96,63,2
0.002318589608099454,0.000608473380511946,0.4665068993377378,0.0736930282736192,38,30,103,63,2
0.002361009307746775,0.000641473806531428,0.4860164631217296,0.07385896990953722,32,30,102,67,2
0.0005373354668053072,0.0020767051008360694,0.06190921236615671,0.23814770526089224,29,22,77,66,3
0.000522967335610166,0.0021121076920620047,0.06960570409052395,0.2680312367307026,30,24,81,66,3
0.0005611524917518662,0.0025859253572409597,0.07334448785513871,0.27618836581000195,35,26,80,61,3
0.0005164181876515045,0.0026031729923279706,0.0705335784620435,0.2779143856173492,28,22,84,63,3
0.0005107583158582438,0.0028801250002849026,0.07271144096898222,0.32043211590404697,32,26,78,60,3
0.00048747072342206275,0.0028368343939457756,0.07205718941834133,0.3066348162521223,30,22,80,56,3
0.000520593425908559,0.0027978732887270403,0.07670737883309253,0.3096530016784987,34,24,78,55,3
0.0005091097502751894,0.002868362117459024,0.07813516715398933,0.3155994244160478,40,24,75,58,3
0.000585602744656256,0.002717366000737625,0.07296787365992358,0.3052502029582461,33,28,74,59,3
0.0005240598507102096,0.002663516892560524,0.06816680392172832,0.307200259424136,40,26,75,61,3
0.000494054589602582,0.0023802088076663695,0.06505044867252448,0.28564320955048594,37,30,72,64,3
0.0004882942809539466,0.0022286147669847408,0.05815060283691523,0.2623398663096078,30,30,73,75,3
0.00046082707874871146,0.002237394530602877,0.05905576198449957,0.24420436752657432,25,30,76,66,3
0.00046601446801855983,0.0020454740161581384,0.058069198885765644,0.24016571029342723,24,26,74,69,3
0.00039453060093668684,0.002031536895883991,0.05297827108436421,0.24612913179052592,29,28,79,61,3
0.0004551834216359731,0.001987410606491668,0.05632205546379979,0.23245060116599756,24,26,76,63,3
0.00046685477436894044,0.001970130474306069,0.061051961036535665,0.2547191469956698,33,28,77,64,3
0.0004908465967469438,0.0019059111426346712,0.06401998368733436,0.24632602377695392,26,26,76,64,3
0.0005336688273700742,0.0020927475085692625,0.06963689108277608,0.27553413890324113,33,24,74,63,3
0.000525837761080121,0.0021287638039560954,0.07042401439260411,0.27702212996755976,30,24,69,69,3
0.0004698850656648398,0.0020156770519298966,0.06430535244361021,0.25894341293309003,31,24,67,71,3
0.0005248117502633709,0.001791575792710014,0.0632346503690285,0.24155748383535758,24,28,70,75,3
0.0005113853233588701,0.001995219846538866,0.058527341062711714,0.2465808922466033,27,28,67,66,3
0.0004375651705355607,0.0019326995379662084,0.05286746860441357,0.24340440096060345,26,30,67,64,3
0.00019913474196014386,0.00022849199360248484,0.013985774995207055,0.016502268811832154,20,18,54,32,4
0.0001995446242646562,0.00022088069689436623,0.01393188843701834,0.015151819163793039,21,23,38,31,4
0.00020090445142457796,0.00022829352049316882,0.013858660224711137,0.01543206972297846,20,20,40,32,4
0.00019711596649631772,0.0002212068361694667,0.013915106117940564,0.016117031399776834,18,21,50,32,4
0.00019700911327058087,0.00021854539285083945,0.013345497050575444,0.015201591036387067,18,18,48,34,4
0.000192914746895479,0.00021229884661556106,0.013821992816448138,0.01546905473860225,20,21,52,34,4
0.00020067666644211203,0.00022322050150590318,0.015065614319332463,0.014791816613314654,22,20,55,34,4
0.00020751800311154234,0.00022225981949722874,0.015467675471603952,0.015465630355299019,18,21,54,40,4
0.00020608255266359944,0.00023014885320133646,0.015194761348080357,0.015291287556016888,18,18,59,37,4
0.00020232416087660214,0.00021182127247468648,0.01571597057471186,0.015447612271352256,18,23,58,38,4
0.00034810338215386373,0.0029160315750907427,0.025262535116232717,0.16248728758007658,16,4,35,72,4
0.0003947495126890178,0.0031767266354341085,0.02983190420974546,0.16760287450616626,18,4,42,78,4
0.0009532729575127112,0.0048099378227953495,0.06133308406000505,0.2500868373705582,10,10,49,68,4
0.0009136138211199523,0.004788466623612124,0.05903007920345607,0.24974067913934672,10,5,50,53,4
0.0008017077269614651,0.002289660800428222,0.0503953782332038,0.12173448398431144,8,4,43,46,4
0.00034014575577793256,0.00045213049229365985,0.021629756424746033,0.032294985069736055,18,20,44,46,4
0.0003003627029080866,0.0003959493017283691,0.020445839255705513,0.03420720340807114,18,18,36,50,4
0.00028168510905969676,0.00041331284429850187,0.018761984956159695,0.03142406672751798,18,18,32,46,4
0.0002630510456072761,0.0004227986837366314,0.01776301331168068,0.031190162244511446,18,14,45,49,4
0.00024397422363306822,0.0003693543583605987,0.016456420391225936,0.027730985332099375,18,18,48,50,4
0.00023127229141785592,0.0003839305659154927,0.01621469204577919,0.027940769377507505,20,16,48,42,4
0.00022770989989991344,0.00040266134041033015,0.016411386121422313,0.02949395015110849,18,20,40,42,4
0.00021753064175051394,0.00035989270212220646,0.01577089251869281,0.026426942430816933,20,22,44,54,4
0.00021550950751959556,0.00034589303891337274,0.016174612144994306,0.02830765705670885,18,24,40,54,4
