f1ch1,f1ch2,f2ch1,f2ch2,f3ch1,f3ch2,f4ch1,f4ch2,Category
0.0006124046507927623,0.0029788483653820554,0.047040121292433644,0.2170085958085979,21,18,32,26,0
0.0006215895453756857,0.0029728363971060646,0.04704678602242528,0.21923537751841304,18,21,26,28,0
0.0006151903548440615,0.002867949156418569,0.04731899724407107,0.211758665716581,21,18,26,28,0
0.000616951008747293,0.0029446534926158663,0.04770032453977747,0.2139761057786707,18,21,32,28,0
0.0006078376762754605,0.0028423898191792,0.046656963349101674,0.20944352006364428,21,18,32,28,0
0.0006142888549200041,0.0028369872880828102,0.04688595989704237,0.20188710031436724,18,21,32,26,0
0.0006093008823751865,0.0027990311547365448,0.04754988285753383,0.20375727989674391,21,18,30,28,0
0.0006374362203400709,0.002881672799110866,0.04997422101187447,0.20238558497677522,18,21,30,26,0
0.0006225567492963726,0.0027649005922212133,0.04998833025021224,0.19854508045772903,23,18,32,30,0
0.0006333879646197618,0.0027958090548797477,0.05088797596528912,0.20354210235310596,18,23,36,28,0
0.0006244607280059256,0.002737256382380708,0.050673859799171043,0.2015166912072986,21,18,38,32,0
0.000623017739513318,0.0027186730261638207,0.04839637241035456,0.20304659454475235,18,23,38,30,0
0.0006062499297676651,0.0025277742051178762,0.04825847954716711,0.19628664633027487,23,18,36,24,0
0.000578019652336589,0.002567048780013545,0.046694460965794764,0.18928745629177596,18,21,38,28,0
0.0006464870234420729,0.0025445073242375675,0.059079157985779306,0.2118265916613584,25,20,36,36,0
0.0010611996066025658,0.0029306252923318515,0.10463898499273501,0.2316296462105147,24,23,42,40,0
0.0011943866454166565,0.003275739720564021,0.13086575962367886,0.2849590562741783,22,20,52,42,0
0.001760605848934966,0.003321823305271978,0.21700847446813215,0.30981918653231066,18,25,60,50,0
0.002494849781823351,0.003460302175319912,0.29907298525677883,0.3338534598280563,22,22,60,46,0
0.002345420489621392,0.003568507549988728,0.32116186319739665,0.34076662225467413,20,21,60,46,0
0.002609186200946205,0.003579151645041258,0.37644268012446747,0.3157821471024396,20,20,63,47,0
0.002228320993083068,0.00332101727137944,0.3142281624489475,0.3063692939126416,22,22,64,48,0
0.0020910909950673795,0.0033256639965029916,0.285825277459263,0.28690701897912674,22,18,65,46,0
0.0022311597269674644,0.0033929952796823374,0.30967452696833564,0.3132956284047895,24,28,67,55,0
0.002161510597088324,0.0034246755555327425,0.2924302450936368,0.35188632490671395,26,22,67,52,0
0.002611917218441788,0.003616174546233611,0.35193917283992854,0.39427364179150853,30,28,66,51,0
0.0025538533438399695,0.0037027266550128273,0.3704186620148565,0.42661581266986826,28,28,62,50,0
0.002768722181042038,0.0036821144968409085,0.3881555030440264,0.40613576816966496,24,22,63,53,0
0.002765411946956364,0.003563935954685006,0.38450990978801836,0.4072901048390445,20,30,59,54,0
0.0032446672746389345,0.0032962184957891273,0.4254086875085062,0.3786591122759774,24,34,60,60,0
0.0031032666854230416,0.0036955605268402052,0.41323212063061143,0.415301955607269,24,32,68,54,0
0.0030029964063022396,0.0036226865924689463,0.392186423335948,0.41899663955335187,24,28,68,54,0
0.0036517217225343025,0.004116628587635821,0.48077858846742966,0.5251083058118157,26,24,68,51,0
0.003242311080192104,0.004698530338324584,0.46142282418764524,0.5753348172950951,28,20,68,51,0
0.003456678141885076,0.004759113029325676,0.497344140970227,0.5649949276097652,30,22,68,54,0
0.003321274234844929,0.005053544503739258,0.46877753933746547,0.5960165391654926,28,22,72,48,0
0.002970478575246115,0.004294275710996481,0.4039576600507113,0.5084401065581544,26,30,67,47,0
0.0028938083070164326,0.004353870891248275,0.41565129506021703,0.5078239251727795,26,26,74,51,0
0.002508595007191833,0.004396481215495817,0.38066318315451564,0.5136515731918447,28,26,72,62,0
0.002273344242247489,0.00367175083966563,0.3230496104393659,0.4134841093453748,26,24,67,59,0
0.001786863600580714,0.003278091195489739,0.24673839062314407,0.33324730747596,20,16,58,51,0
0.0008535666976609573,0.002225901670625733,0.10516077583913173,0.22132446566188366,10,16,64,54,0
0.0003126640322498251,0.001271466929884673,0.030209263583523452,0.1245557336728908,23,26,66,44,0
0.0002953531277507047,0.001238755580051005,0.030283322809890472,0.11833088949150725,26,23,64,39,0
0.00031704554504164616,0.0013349621529508595,0.03466003302649328,0.11889791227725954,26,22,61,44,0
0.0003249696578048361,0.0015155947134983326,0.03627266219449098,0.12511217846845926,26,21,62,46,0
0.00034821031203922795,0.0014901146486581028,0.04028634953408533,0.12614285196262684,33,22,63,45,0
0.0003444043588326708,0.0014907902896969763,0.044621101584225914,0.14072941046558404,28,23,69,51,0
0.00027673286552390604,0.001025628530424501,0.025962594706088474,0.08698468615047239,26,18,59,38,1
0.0002963370347368924,0.0010107312754366745,0.027251337540680307,0.08655537319154401,20,20,66,45,1
0.00030348292038616083,0.0009577714781953149,0.027446059597755913,0.0816662487463901,18,20,61,50,1
0.0003043553422245936,0.0010385245375201496,0.03189727813422595,0.0857849629204699,22,20,57,49,1
0.00032928630585068617,0.0010571310560983662,0.032294636973742734,0.08578193871786788,26,22,54,50,1
0.0003379372261900701,0.0010098652933975254,0.03401681476670855,0.08573581223483194,26,16,60,46,1
0.0003308785710323815,0.0011062127161611903,0.03478157264527963,0.0905743170792439,31,18,59,50,1
0.0003541134840428323,0.001071469367199788,0.035788324289906796,0.09298982513534615,24,26,56,52,1
0.000354042618435985,0.001079962123505527,0.038185286935374894,0.0890255736370306,24,18,61,48,1
0.0003900978297663367,0.0012381013104734184,0.045627213819640154,0.09964376043630081,22,18,64,56,1
0.0004857531505436209,0.0012917682469207937,0.05447884824696063,0.1099766801679512,20,16,74,50,1
0.0005271555846485367,0.0012868384283485734,0.060283298438268816,0.11390859878596696,20,19,67,56,1
0.0006816416580398707,0.0014899107496044155,0.07577927621998551,0.14105037956395414,30,24,71,55,1
0.0007900950619527679,0.0014857652854173612,0.08840630243135844,0.158285953912191,30,26,75,54,1
0.001192049101237905,0.0018468134249251325,0.13359365671933757,0.1769082173622035,22,20,65,55,1
0.0016688018831108708,0.002018655688065523,0.21214226992926558,0.19192029274119016,26,22,65,58,1
0.0017425521687281025,0.0027472728381214132,0.23292427914871214,0.25994775810121706,32,20,62,62,1
0.0027226093539946972,0.00324724222937048,0.34269610838920106,0.29888196705532855,30,22,71,55,1
0.00297137444117199,0.004071557933081976,0.3769876734603559,0.33330882818343616,24,18,64,54,1
0.003897067605244876,0.004255328386043386,0.5013345221663515,0.3951257682207702,24,26,62,48,1
0.005523071364139908,0.0037595018007870605,0.6798734619312611,0.36836951614193836,26,26,60,53,1
0.005788110303569289,0.004650155256235387,0.7546597106072419,0.42951895562617237,28,24,62,47,1
0.006904823052119633,0.004871864853084021,0.8258096314919982,0.4797794529725729,30,20,56,46,1
0.006405084900043891,0.004778883523993499,0.8577273592313485,0.4923938780370541,30,22,58,48,1
0.0060618863813745195,0.004298511175573377,0.7772099484160941,0.47094670501326813,28,22,60,51,1
0.005956838107825399,0.00415747409662697,0.7164496468124967,0.48551718228458063,22,26,63,56,1
0.007088485793012057,0.003785216544301444,0.8032390155290892,0.46727997274223476,28,28,65,63,1
0.006329716990865854,0.004018647190309846,0.8691999307740339,0.47935454105229364,32,24,68,61,1
0.0064444234874648084,0.0040032486010918075,0.9141638426337123,0.5042885913894186,30,26,66,61,1
0.006386474346492787,0.003977292675214166,0.9294445015987579,0.4633056914717326,32,28,69,65,1
0.006270740346323787,0.004224244090736314,0.9055295012387311,0.4502484190264814,26,24,69,62,1
0.005979138621638153,0.004249700909401865,0.8159027274802916,0.4266788398123623,32,20,65,62,1
0.005862836238687096,0.004167479745355072,0.8426750177749694,0.39546797728625505,28,18,64,66,1
0.005737202390067348,0.004412416036011239,0.8480312014319196,0.42606571609673877,24,18,67,59,1
0.005478158451779511,0.004225081299881594,0.8033392442436482,0.4293107735823632,26,22,67,53,1
0.005817464060214347,0.004062809801710055,0.8313666767936674,0.4326523699670485,26,24,68,59,1
0.005475231216505223,0.004735062741870816,0.7673723093890575,0.4817844083690613,34,28,66,64,1
0.005832335083768406,0.0040519938321842905,0.8330007979825789,0.4357002539676085,32,32,61,65,1
0.006288803776253521,0.004643456173621165,0.8343189265257014,0.44815363129248614,30,28,57,63,1
0.004648438723998376,0.0039404453314709756,0.6014309883774835,0.39173776975178015,24,26,58,50,1
0.003864782743963715,0.002861398241851038,0.4857825666576602,0.2764776214565003,20,16,51,41,1
0.0022218751105618924,0.0023276642977978572,0.24434890429888131,0.2005053082307239,10,12,59,36,1
0.0002544431392915468,0.0008964008502551953,0.025257010720185012,0.06584105396884203,26,22,60,44,1
0.0002794372423918924,0.0009081572446160876,0.02711184209120553,0.06705072778345007,28,20,65,48,1
0.0002672974189610979,0.0009350503702520906,0.025737682494554166,0.0684110831687845,20,16,60,44,1
0.0003181677832657773,0.0010192959522572161,0.03354386643403674,0.0758323499716352,22,20,65,46,1
0.00035844738235661785,0.0010268643678698671,0.04066198365058257,0.08096401926847663,26,22,63,52,1
0.00044009319922466017,0.0010893335566934837,0.049706532822775054,0.08572001670089432,24,24,61,52,1
0.0012708740619708414,0.000726235855635814,0.13906642017057755,0.05524660079240116,10,20,60,36,2
0.0011819252777053358,0.0007284505927847352,0.128334396615629,0.05427292940393231,12,18,55,30,2
0.0021834710832801126,0.0007078120739742179,0.2027752777582465,0.05260364822689466,10,20,43,28,2
0.002290706701095722,0.0007078897443196676,0.21597909546811503,0.0518028576731827,12,18,35,30,2
0.002031342166425034,0.0007082037426333689,0.19233324765029644,0.052129244438393535,10,20,36,28,2
0.0026775230161784212,0.0007290991432343014,0.2844523447921589,0.052762920404071,16,18,36,24,2
0.0025256293956147594,0.0007435081710026294,0.3002707214339589,0.05426745915782205,22,18,45,24,2
0.002640794912414255,0.0007628999462709414,0.3074739882197112,0.056033920334786554,26,20,51,28,2
0.0033889466981961848,0.0007812361424239928,0.4202976443520274,0.05682258868895406,30,18,53,36,2
0.0034414208573245687,0.0007698127248686018,0.44282488345035154,0.05710892747071345,22,20,54,36,2
0.003408328491143484,0.00080223758378484,0.42900872216265823,0.05901332379837198,24,20,58,32,2
0.0036634783010969195,0.0008108321830388285,0.4996949235216806,0.059603557626911594,30,20,56,34,2
0.003655297186786461,0.0007920724236254222,0.5147171165092806,0.0610357797161477,24,22,65,36,2
0.004008709102023565,0.0007956101580351671,0.6050889943801154,0.06389025550197763,30,22,71,47,2
0.0041714135006204215,0.0007850783953558245,0.6708409471570245,0.06308085990113756,34,24,73,52,2
0.004200748690703561,0.0007657640035877045,0.7123039202827388,0.06149709375372364,32,22,76,56,2
0.004951733289586496,0.0007735624695839486,0.7903516952884136,0.06518442693099744,36,22,75,52,2
0.004700840953636936,0.000781797871394614,0.7789272719071255,0.06490937029462256,36,22,74,54,2
0.005105652919851549,0.0008113930198319574,0.9155435739503094,0.07549170224525495,46,20,73,54,2
0.005748728643049482,0.000826563038089986,0.9678844701780228,0.08125427851342114,32,20,71,62,2
0.00585652537577425,0.0008725357184734522,1.02568897558039,0.08378576713768221,34,22,68,62,2
0.00617482958932623,0.0008690906046396749,1.125715010505814,0.09112016065109899,42,24,77,74,2
0.0067922930047667985,0.0008896239860927965,1.2067782472794901,0.08520646792766284,40,26,78,72,2
0.007502029353152071,0.0008835820681107913,1.3056822373267143,0.08740703428986674,42,26,79,76,2
0.007478570416601425,0.0008941683084069374,1.3391567622540537,0.09375526242580809,36,30,74,76,2
0.0075584600212247124,0.0009723647986942281,1.269180573937679,0.09624527893449185,30,32,72,80,2
0.006855779915255584,0.0009987349614933457,1.1338374610184476,0.1060618908655853,32,24,70,77,2
0.007354407089004178,0.0009855612294685733,1.0186759934494503,0.10808078548708888,30,24,75,72,2
0.005148638770518604,0.0009262910617518661,0.9500048672696187,0.10708998314628604,36,24,74,76,2
0.005247355468445807,0.0008779394014751148,0.9712960183234095,0.1029009943245454,34,28,76,72,2
0.004958830956648424,0.000869952654899531,0.890460091713261,0.0999799701568309,32,28,76,78,2
0.005442697112149607,0.000869686296650188,0.9530532202831682,0.09472340335484289,36,24,70,78,2
0.004945908557981039,0.0009044467831625863,0.883323034573448,0.09778736815539366,38,22,73,71,2
0.0047945283897614585,0.0008670902020942925,0.8169830355096231,0.10155900228764005,38,22,78,69,2
0.004758472750403567,0.0008781386586543384,0.8364409762577357,0.09620208040731666,36,26,79,78,2
0.004124007238088894,0.0009073572528694896,0.681863309272003,0.10075819412503964,38,24,81,74,2
0.004251203751535092,0.0009089064490563997,0.6807199890792276,0.0967902371146854,34,26,76,78,2
0.003810916473508748,0.0009460168088174423,0.6118592429911653,0.09591102758829285,36,24,72,71,2
0.0037103619031429174,0.0009554069256311226,0.603390136876566,0.09797231767983973,36,28,74,68,2
0.002898719116955409,0.0018392173283969973,0.4604373549356491,0.1326115050612092,32,8,91,68,2
0.0018526284381458736,0.0018475980701202065,0.32169798906929514,0.1204216514607199,28,10,94,64,2
0.0013295753961665548,0.001781551269002099,0.20669010360788181,0.10634357705159328,16,6,78,42,2
0.0009236557453137963,0.0009519181811845188,0.12630748590419436,0.06249243391136537,16,20,54,24,2
0.001704630821211323,0.0009511452387761517,0.22727279165301312,0.062104949427766086,20,18,53,24,2
0.0024799555740448952,0.0009258161837312002,0.3444481461462499,0.0600913242244407,26,20,52,26,2
0.0033783676340909774,0.000912874049607068,0.4557976441173199,0.060931389151377795,24,18,53,20,2
0.0033458131710646104,0.0009054597525993918,0.4473081213856318,0.06131210922577236,24,18,52,32,2
0.003049804700630279,0.0008872765697096645,0.4110069766377515,0.06227866002750071,26,20,57,36,2
0.00025450979784605836,0.00039313754284335685,0.0210726943537101,0.04981794808504059,20,24,34,64,3
0.00025389808075907376,0.00039031524572001944,0.02163486796998691,0.04929718374202902,21,22,36,61,3
0.000254595141692825,0.00038847999982979774,0.020701889742758165,0.050640710506207776,20,26,36,60,3
0.00025090160871949087,0.0004808588673223364,0.02076897386863084,0.057483357176393225,21,22,40,62,3
0.00024043482899458618,0.0005830511458720113,0.02029488266163177,0.07421172635379586,20,28,36,59,3
0.00024632020174034715,0.0006081664925264756,0.020692898307623456,0.08195051699808235,19,33,32,63,3
0.00023843783757848862,0.0007057552631981188,0.020556111537556526,0.09637284308457927,20,28,40,69,3
0.0002430970739186899,0.0009312948896780141,0.021104054702821,0.11126244961338076,21,26,38,67,3
0.0002477427700682583,0.001042542328867539,0.020692676578226724,0.12878108439451946,18,28,44,69,3
0.00025276397989276256,0.001409052811400642,0.022260868549365945,0.16242375678616247,22,26,42,63,3
0.00025714769250045574,0.0017095801339050169,0.02359872162852254,0.19062437018487896,24,22,46,65,3
0.00026428562839693167,0.0026625845975503876,0.025425964486407562,0.2840250849424285,26,18,44,60,3
0.00028185732928829097,0.004231296485849982,0.02983775915825588,0.47443537297031857,24,16,56,54,3
0.0003072927015088571,0.005805384156979592,0.03353264609405126,0.6645909642407972,24,20,57,55,3
0.0003326768288410028,0.006800225679726047,0.039567113335996947,0.8670633610549222,28,26,70,56,3
0.0003538154384076337,0.007981156044758294,0.04800619136316979,1.1000533160755634,30,34,72,58,3
0.0003985062843482361,0.008442338158692388,0.05922962143758265,1.1837129807227633,38,32,75,62,3
0.0004627108425953573,0.0076218027611553605,0.07512987026176454,1.2321942200495442,46,42,75,69,3
0.0005190657136682888,0.008375889603966416,0.08396080170704649,1.3442840005187946,40,42,76,67,3
0.00054965115686844,0.008329483945741865,0.08804606585623291,1.3433792157020294,40,34,76,74,3
0.0005435065726009314,0.008304143256414818,0.08935849385781883,1.3260592571289467,38,34,77,82,3
0.0005434083839682563,0.00858560012427234,0.08790122645460986,1.425763687618371,36,42,78,82,3
0.0005465472922436733,0.008882811434936877,0.09222548716664493,1.4397480925579167,36,36,80,80,3
0.0005676124379983831,0.008574116861827168,0.09863209818975661,1.4847651070812868,44,42,85,79,3
0.00055664329195131,0.008846985547137668,0.09880044812664146,1.4672171447335847,44,40,84,73,3
0.0005629346999210492,0.008651224311414492,0.09448228847908165,1.4139554362084914,52,40,82,75,3
0.0005580987734111361,0.00830441092604783,0.10244570395467836,1.3790169256363687,46,36,82,77,3
0.0005439876741053973,0.007628928264904239,0.094850286586199,1.2730557813051235,40,34,78,78,3
0.0005206890849063898,0.007517344099694159,0.08816872065465572,1.261867927365033,36,36,79,73,3
0.0005482297067411026,0.007188897381619136,0.09295625848417031,1.2187107520170153,34,36,77,73,3
0.0005250343325703951,0.007492156813626613,0.08452322083931149,1.1912223933695982,32,38,79,75,3
0.0005437602798412205,0.007796603123916903,0.0911319976630216,1.1570150475849217,40,44,79,70,3
0.0005706723487340405,0.008783433372467377,0.09712196365480037,1.1565529430456936,38,38,79,70,3
0.0006047965238369973,0.007598165038619179,0.09621639364711931,1.003250458821046,38,36,77,64,3
0.0006067182188794843,0.006803292680358386,0.09486022219105036,0.9821257686220917,34,32,74,67,3
0.0006240447891318114,0.006729405414100458,0.09590135143074635,1.0404761157777758,40,32,70,68,3
0.0005907067483381794,0.0067472483035928114,0.09366314321122868,0.9713084111269241,40,26,73,67,3
0.0005570669755729083,0.006224339106684051,0.0937275674034803,1.0174386786272882,42,34,80,73,3
0.0006327962377532563,0.006028533070434483,0.09967853195585598,1.05105373990862,38,36,77,76,3
0.0008525490459210818,0.004702440372026397,0.10338062550201235,0.775235697152683,20,32,73,70,3
0.0009186012464818344,0.00373616131175178,0.09397504616428143,0.5708710039756443,22,22,61,65,3
0.0008420106662289516,0.002159509532735507,0.07646992100492457,0.3425593789521013,22,14,57,64,3
0.000496062479285876,0.0003725182044203792,0.03678002112648914,0.04120462292820197,19,22,52,54,3
0.0006043040398400821,0.00039811280100350566,0.038741746981106474,0.04400722687060506,18,23,34,57,3
0.0005730072414400349,0.00045200154177259456,0.03625606760212058,0.050004565809260396,20,24,26,62,3
0.0004145480959902507,0.0005164480745392251,0.02805896702222108,0.06164794964637121,18,30,27,58,3
0.0002704311138103915,0.0007553594168771684,0.023162886371592657,0.07867958965519785,20,22,28,59,3
0.0002896673011744451,0.0009825445845016597,0.024281171584269137,0.10972891781472076,20,30,33,56,3
0.00027653151709930576,0.0012546853450253641,0.02472333571453094,0.09698194283197986,22,18,61,38,4
0.00023940828915217636,0.0011923099954622698,0.020695202912488022,0.09401075485068469,20,23,60,36,4
0.0002582663741592361,0.0011666876265360878,0.024889302994683,0.09235139735047493,22,18,58,41,4
0.00026646696154170144,0.000978478270577937,0.025756034718043216,0.07948475817085521,22,23,58,40,4
0.0002838473989117773,0.0010711421785787921,0.02766765840534244,0.08639793323862752,24,18,59,43,4
0.0003051292334535551,0.0011311550623173908,0.028945420428348925,0.08805156182610176,22,25,60,44,4
0.0003406899165966817,0.0011327222416721958,0.032222097023921537,0.09020484878974058,28,24,59,37,4
0.00033448152228847215,0.0012768883568445033,0.03278039895574215,0.0955404263266621,20,21,62,36,4
0.00035774600318888366,0.0011473013439609317,0.03414437409813222,0.08765281328401237,26,16,63,30,4
0.000338502765871955,0.0011440366576929886,0.03278923847049097,0.08788463921599006,22,17,60,32,4
0.0003398171150604616,0.0010845896886401587,0.030560363387379365,0.08712170927856412,22,18,61,32,4
0.0003155372128381136,0.0010876607393108585,0.03007426224095441,0.08187638946920567,26,23,58,34,4
0.000304400129164345,0.0011986992447190693,0.027173097059220462,0.08913066307819109,23,16,59,35,4
0.0002946956271772628,0.0010563765015749991,0.029208039583405395,0.08189844495907746,22,21,61,34,4
0.0002807643158169218,0.0010614638995760607,0.02708215972584152,0.08550923453116786,27,22,63,38,4
0.00028326089507048775,0.0011084389341606262,0.027387544204854574,0.09056995307910724,24,23,60,38,4
0.00027086798526173276,0.0010979102354097831,0.02591164146027419,0.0861626292332636,27,22,64,44,4
0.00026569463749005133,0.0010562638144937769,0.024832389328376444,0.09084173218099661,22,21,66,48,4
0.00027847353774623274,0.0011910058832515437,0.025110817444481036,0.09314203803882298,27,24,66,44,4
0.0002732107979161047,0.0011566501269674474,0.024960429661219558,0.08900367627816387,22,21,68,42,4
0.00026280973237713975,0.0012416558713391902,0.02339521465799512,0.0891150758630159,19,14,66,32,4
0.00025859715454152433,0.001198076654884141,0.021158006593783245,0.08463536788885143,22,17,62,28,4
0.00026099798253571496,0.00116220849141843,0.020156996383587453,0.07911558651828361,19,14,54,26,4
0.00024991521682257153,0.001048773489722307,0.020289474096980693,0.07549554777817048,18,23,54,30,4
0.00023776883812223082,0.0011305644983050662,0.02099339083982625,0.08336872707227651,25,20,55,36,4
0.00025537968875049443,0.0011158973175885,0.0253270179445677,0.08492318802750701,26,21,58,36,4
0.0002600394940419456,0.0011676167634674898,0.024921349704700606,0.0886324764745394,25,18,56,37,4
0.0005500853189196053,0.001747862277847106,0.045184971867773344,0.11504826779482588,14,16,61,51,4
0.0015537310627914307,0.0018891367198738318,0.10120531748270836,0.12682839452659464,9,14,61,47,4
0.001791009831557235,0.0019535911849836154,0.12923860375355772,0.13693467549810387,10,13,60,51,4
0.0016474414107958146,0.0015955878526321319,0.1227103225309841,0.12512239202227296,8,20,64,40,4
0.0015747565708034812,0.001591485144897997,0.1174616274043867,0.13351007631211756,6,19,62,45,4
0.0007853056483429913,0.0015256380981833934,0.09951311824378449,0.11802910070453108,24,20,56,42,4
0.0005726637503379202,0.0015876540680104265,0.06490046552705188,0.12369083871608093,24,21,55,46,4
0.0007065685576332703,0.001521976943334116,0.08645813933098609,0.11980409062580909,19,18,60,40,4
0.0006532919768932497,0.0014456927099485038,0.07841294038086252,0.12542434735862137,16,25,58,42,4
0.0004797234395568308,0.0015783982055293016,0.05241768397786926,0.125793718873454,17,20,59,40,4
0.000525427827698709,0.001337941036886745,0.05128219767897904,0.10277246481142933,14,21,49,43,4
0.0003789297693597062,0.001229505538466343,0.028992985305292495,0.09833409520114951,21,18,44,46,4
0.0003694428028691929,0.0011907616112252837,0.02939571728796075,0.0781659054984592,24,19,44,40,4
0.0003400978458093062,0.0011335970929146977,0.02691995692340803,0.07383660543174636,27,18,47,36,4
0.00036828979045328865,0.0012013161553986703,0.029165492376689653,0.07540471197887218,20,17,58,35,4
0.0003435028241562041,0.0011830519459770771,0.025166908003603845,0.0692196770809002,21,18,56,34,4
0.00034099460693735677,0.001220802668156949,0.02807609343093809,0.07229592200911425,24,17,62,37,4
0.00036085459748708034,0.001208633665916505,0.028432547110519776,0.0721574626401357,21,18,51,33,4
0.00033899286050070393,0.001268900577589877,0.028674492113438036,0.07486930135123143,22,17,57,38,4
0.0003713931738503209,0.0012238846547478874,0.030356507093271545,0.07274928576186082,17,18,54,36,4
0.000319712596620566,0.0012183661530872523,0.02689791161474177,0.07387810131378605,18,17,55,28,4
0.0021969011668861566,0.0029330169205892074,0.3049041815494377,0.33646097171509554,20,22,65,58,0
0.002031421318710283,0.002719526644429284,0.29391317261236466,0.3314094549926566,20,26,67,54,0
0.0020140396295414186,0.002806782090827882,0.28033607289658724,0.328520309247669,24,20,67,51,0
0.0019426416676388053,0.0025341627802606993,0.27690999751859957,0.28722466981552874,18,29,63,51,0
0.0017422942227993319,0.0023396206991059616,0.2593670258409992,0.26688919695192465,26,26,61,55,0
0.001951570377868054,0.00232692617173541,0.2758732713441619,0.26885525979296365,18,27,61,59,0
0.0019518447142517262,0.002517297339202139,0.2800746640652508,0.27668345090892016,32,26,64,57,0
0.0019099005778141875,0.0025535224765773044,0.27522412846417127,0.28125787407317987,28,30,66,60,0
0.0017351446870872787,0.002398161850134568,0.2654893180723613,0.27260937072076846,26,26,66,62,0
0.0017612716965247533,0.0020722842002559405,0.23315740348730749,0.23624628637163206,22,28,69,55,0
0.001407708865883988,0.0017853575583610679,0.16001815127543606,0.2055676092325807,16,30,73,57,0
0.0010825960810074142,0.0017332929403057055,0.11414768422157219,0.1927744692574616,16,26,61,52,0
0.0004160295146437733,0.001643404407379577,0.05571643959256498,0.16658811175066135,36,22,68,49,0
0.00047468158704790965,0.0017492350388506022,0.060619875412829094,0.18034641260861842,22,25,66,50,0
0.0009099467834760035,0.0016466456781795455,0.10632986857668818,0.17575470825859973,19,26,67,54,0
0.0009021890062611925,0.0016734559404831964,0.10956700824682815,0.16755080991072763,22,27,59,53,0
0.001009900557425268,0.0017145187051657849,0.12564127615217519,0.17822107015681657,18,28,64,51,0
0.0012656676283040534,0.0019090716957683679,0.1535479220287434,0.1948141839412861,16,32,62,56,0
0.0011890542592491412,0.0021190733845492735,0.14382131185702804,0.22066913823472922,13,28,69,58,0
0.0011666475165207316,0.0020327489813458536,0.14877039654045207,0.21933993073155708,18,26,82,61,0
0.0013061192319830175,0.0019469911497307921,0.17447577918262205,0.231518057875829,24,28,79,64,0
0.0015532414598049083,0.0021202850343176173,0.19086565386053655,0.2237879547904761,20,26,78,64,0
0.0015315030121209059,0.0019674462722127886,0.20234880849858877,0.21486031838445813,20,20,74,59,0
0.0016909227633645023,0.002149212744655135,0.22529030068271094,0.23757879985260602,24,24,70,60,0
0.0016506276050416962,0.002385279475959927,0.2388864724316194,0.2390806928300011,28,24,71,55,0
0.0017095964733164625,0.0025770661779705582,0.2571602224751879,0.26569465528152236,20,30,62,55,0
0.0021033519156299606,0.0028733967878351056,0.2874691844141697,0.29689162636929106,18,26,67,58,0
0.0023187120577053463,0.003045749349887642,0.3268042580854434,0.33477107973751924,22,32,65,59,0
0.002384186451325454,0.0031500220366886505,0.35738355637773167,0.35472853758635325,22,28,69,56,0
0.0024784018935173294,0.0031229012977426313,0.38237142077313785,0.35698001020359,24,32,75,61,0
0.0021770995771348872,0.0030025583330063003,0.3439498266152477,0.3455173939248102,26,24,75,66,0
0.0022553231085200845,0.003604195854625889,0.3608037356984876,0.40001583069093927,28,26,75,65,0
0.0021243986004548677,0.0034646278695052834,0.33764564539983316,0.39660664758122316,30,28,68,55,0
0.0021393631998927456,0.0038456591682171502,0.30814984966134323,0.4137003421791856,28,23,61,53,0
0.0021196033645261517,0.003746662473139263,0.3133772649656496,0.41766416857022876,28,24,70,48,0
0.002014851195406715,0.0034049331917892136,0.3020205406812669,0.3466960920644541,26,22,71,53,0
0.0019824811425457538,0.0030891350386674844,0.30729383475017796,0.33855873280729476,24,24,69,57,0
0.001731446487214814,0.0028235897686051032,0.2663703159994705,0.30084858926821184,24,28,73,58,0
0.001831118648391517,0.0026844907737108964,0.27265424239959263,0.2883155737863265,24,20,74,61,0
0.0019116382747702012,0.0026212243290101717,0.28798230626060534,0.26509130170261486,28,29,69,55,0
0.0014795126703964507,0.002692630281223135,0.23757239820550674,0.27375591831962137,28,22,67,52,0
0.0020067096401221608,0.0029342109316968117,0.2870121741704278,0.2968552995143402,24,22,69,51,0
0.0019014941738398536,0.0029108394314123287,0.28568060631076736,0.2967152047482677,22,24,65,55,0
0.0017664008662289334,0.0027924503497512064,0.24764975132559108,0.29667070384324645,18,24,71,58,0
0.0017887662784311046,0.0026096559838569037,0.24342637293209643,0.2639511569150115,24,22,71,58,0
0.001821469299744273,0.0022315080180367233,0.23397943128901832,0.22267276123715418,22,22,63,61,0
0.00143876646441723,0.0022631667944332887,0.19363164098840918,0.20866021051676678,20,16,68,57,0
0.0014600746512714643,0.002108832042312197,0.21780747724503224,0.18985010441897784,24,22,66,59,0
0.0019361826613769667,0.0019461611550903252,0.26378266859952326,0.20126421858056978,20,28,63,61,0
0.007005008112863879,0.004269183177068904,1.0847235535689717,0.5114900929152855,32,28,69,64,1
0.007253911286482908,0.0049186298060094735,1.0849794915084312,0.4988148749277516,28,26,70,61,1
0.00811167200712728,0.005194724517698455,1.1421495498214878,0.5807408945005635,26,28,74,60,1
0.0076589724997996635,0.005131488782771253,1.0618041500129565,0.5604648008833015,26,28,71,57,1
0.0076227065910690495,0.005421805998996122,1.0469937990309228,0.5727095947642147,30,24,70,56,1
0.007282405720084806,0.0056319866002754035,1.0356903038556335,0.6119790313444876,34,16,67,55,1
0.006528348335732793,0.004511894935710606,0.9393651548809854,0.5441400769923423,34,24,66,64,1
0.006296874038148006,0.005212248062439366,0.9678145898216126,0.6190673822420324,44,30,65,61,1
0.006735137021634953,0.005315158550199629,0.9983768123060581,0.6064395564877342,36,24,59,58,1
0.005197512410212289,0.004610230741069943,0.7525449359086605,0.4774041995383746,32,24,60,57,1
0.003885915063830639,0.0041091725131592255,0.54697818392365,0.37535429273202936,24,16,50,45,1
0.0021943528177936146,0.0025258347134909077,0.2920276041128836,0.20270757411006227,14,8,43,36,1
0.0002751785211718587,0.0009072866145058944,0.02528245200533852,0.06290343359088198,26,18,59,38,1
0.0002895069294135782,0.0009205372268013203,0.02634951154108951,0.062150979400626485,22,18,54,40,1
0.0002684322425535789,0.0008995346822082032,0.02480652788626779,0.06212934877079484,24,24,56,40,1
0.0002658156768906142,0.0009421918736161942,0.026385922741219536,0.06588063956537252,24,24,60,36,1
0.00026163838750476977,0.0009680446359313331,0.02798308112406877,0.07291354317827183,24,24,64,38,1
0.00031082202474059536,0.001003155939067252,0.03407954577612976,0.07794049067616471,24,20,60,35,1
0.0003485027503375498,0.000988664844664783,0.040387957892018635,0.07795618323284027,28,18,67,35,1
0.0004147213630502325,0.001034603245507164,0.046029551220031426,0.08001691573168868,26,18,58,40,1
0.0004250140478397335,0.0009797299696331307,0.046845536211781454,0.08258700392577033,24,20,63,46,1
0.00041563558998353227,0.000994488478757226,0.04873940105394986,0.08317448574866883,24,24,65,40,1
0.00042731529401194706,0.000972254110712303,0.05284846043820166,0.08573289766232617,26,24,69,40,1
0.0006271312995648815,0.0010616920797109281,0.06402501731888025,0.09248487439460283,26,24,76,44,1
0.0006979057769489104,0.0013227557344437685,0.07915064039190255,0.11395039678731855,18,24,82,48,1
0.0008885991882099101,0.0016805674576762706,0.10404169899335325,0.13301299625037916,24,20,73,59,1
0.000992516577548389,0.0018665430238846634,0.11815528371418485,0.16455000981983403,30,18,71,54,1
0.0010735085719638573,0.0020206361639483416,0.14439351243062942,0.19277045000127566,26,20,64,50,1
0.0012957646400329266,0.0018707086210662338,0.17911477728040395,0.1904832607289796,28,22,54,54,1
0.0014993362504991878,0.0024178921423810558,0.20190740849927452,0.2435145157971542,30,22,58,49,1
0.0019113960515197447,0.0028801795435564265,0.24194624721970798,0.2831177472052695,32,20,60,52,1
0.002687930728208907,0.0034997530327403868,0.32743180635319913,0.3480476381992264,30,20,61,55,1
0.0028374138916808776,0.004266490629531866,0.3546213756566774,0.4203121121290599,28,22,65,54,1
0.003181428574157499,0.004858955043625502,0.39707493318446385,0.5078557376418581,32,24,62,47,1
0.003902680871393425,0.004876196573635106,0.4676593708705785,0.5424887031271202,26,30,70,51,1
0.004227589820654443,0.005279379859353669,0.5455254046616231,0.5688967212438634,26,28,70,52,1
0.004795847676456667,0.00566834775071243,0.6293472633848037,0.6121070280421488,28,24,67,46,1
0.005047116701146359,0.005217430843969928,0.6400104330981081,0.5657097515696996,32,26,69,49,1
0.005554287610068158,0.005397588361982014,0.6969640982694096,0.5792376627152077,36,20,64,52,1
0.005849594374692259,0.005007550230918789,0.7450235059519827,0.5743931479694597,38,32,66,53,1
0.006493042292393434,0.004380377305597773,0.8149363317533125,0.5267988373199319,30,28,71,63,1
0.006704759473435652,0.0046563321935178545,0.8826343329624169,0.5665633685670538,28,28,69,59,1
0.006626036022042908,0.0043977980121277325,0.856934904390676,0.5261893755971705,32,32,66,66,1
0.006243473412877355,0.00409424256578081,0.8230696604609457,0.49092819998901266,38,32,68,68,1
0.006812875503614223,0.004486067016863258,0.8587672126504028,0.4993940511358366,30,34,64,67,1
0.006609834650156353,0.004932553029698142,0.8883508971750741,0.486393276765042,32,24,61,66,1
0.008013225408843513,0.004951260568885366,0.9439404138517351,0.4847906628112811,30,18,59,66,1
0.0072160587156797455,0.005357304088338428,0.9289549369242502,0.5243363472449258,28,22,60,52,1
0.006736868686827367,0.0056052982513488695,0.8385264222330604,0.5296810030008964,28,20,60,48,1
0.007324970706075531,0.0012071084241253248,1.2210233367811392,0.1892168099594459,42,34,70,76,2
0.006235833027738777,0.0012759552338607561,1.0107941685256214,0.19464548210831478,38,30,72,74,2
0.005310249963009887,0.0011921781580661302,0.8932594544985893,0.18987424654384594,36,41,75,76,2
0.005410516962372655,0.001256850844383121,0.941323798514752,0.1971310780447162,34,36,77,74,2
0.00523714911447179,0.0011931771782082042,0.9215181990171649,0.19564899505874114,40,37,77,75,2
0.005212470721356318,0.0011966962295513054,0.8918853692050165,0.1866620865703277,38,38,74,72,2
0.005673837058507094,0.0011391118508849258,1.0017398899828214,0.17649194198602886,38,42,68,74,2
0.004845971228843186,0.0011911531742416668,0.8756476603200776,0.17392806263778718,40,38,69,74,2
0.00457701003111931,0.0010766133218858148,0.7939924699964112,0.1687320986727144,34,47,70,73,2
0.0037429944921928454,0.0019068883377706728,0.6332792355650695,0.17182510388094685,34,20,66,53,2
0.00220934735150098,0.0017340832238913694,0.35709690532747523,0.14102421777513668,30,14,64,44,2
0.0013502748064030965,0.0015082581599991768,0.18359569527986772,0.11142712366635749,16,10,79,36,2
0.0003271886101097111,0.0006890615077053577,0.03821221107432135,0.04387678083010807,18,21,67,32,2
0.0008467868705052267,0.0006795138567660366,0.10909529401510454,0.044099364227064834,14,20,66,26,2
0.0010421004943027136,0.0006696811799460454,0.13874111628794125,0.043067667354486146,12,21,59,30,2
0.0009566961972161896,0.0006901897074075664,0.12930559641726833,0.042525851114768545,10,16,59,32,2
0.001104047360733286,0.0006767014960787737,0.13528271837455308,0.04290689471308352,10,21,63,32,2
0.0007202882565083943,0.0006683149175348578,0.08873590435101719,0.042178715280615085,14,18,53,30,2
0.0004678138793602944,0.0006721555900635742,0.05642491784395837,0.04207814864019083,16,21,60,24,2
0.0023327667142243533,0.0006556184700550701,0.2221105988269351,0.04167649815677475,8,14,29,28,2
0.002228870016823958,0.0006641982178530876,0.2564326516756841,0.04242992903562598,8,21,41,24,2
0.002336901542642635,0.0006631997001287407,0.301364472190391,0.04397050035044812,14,18,44,28,2
0.003354610723185169,0.0006617598540052404,0.43329110151968153,0.04584827907238771,16,21,50,36,2
0.002361815276261401,0.0006758556252763799,0.31747753119327343,0.04660904421040497,18,18,54,34,2
0.0025876899840294137,0.0006672068909956211,0.3561545871471267,0.04694279186374189,18,21,63,42,2
0.0033594486200396647,0.0006794141697131129,0.43257182878313755,0.04888579787136054,16,20,57,40,2
0.0030612887553203134,0.0006978786241747239,0.39940664277831517,0.048757571381741846,22,21,59,34,2
0.004437918032597787,0.0006894828463650853,0.605598996175687,0.05156905083118184,22,22,64,40,2
0.004924792547466299,0.0007153258317428285,0.6657850172599317,0.054922811105367855,22,23,63,47,2
0.004742867802999281,0.0007415967933980174,0.7009394516266078,0.06479814936775652,30,34,58,54,2
0.005705440991006501,0.0007369779269811672,0.7968877198836398,0.07217534394740639,24,31,61,56,2
0.005230206032505589,0.0007193871922708419,0.8195280779849629,0.0777833215638032,28,28,59,64,2
0.005381088528949826,0.0007588934037454973,0.881616967564394,0.08166290655757007,38,30,69,67,2
0.005486002039677585,0.0007290697445376367,0.908556912554955,0.07779047047599211,40,26,71,76,2
0.0058165358496217725,0.0007715151074235601,0.9873865511436951,0.07580882760049514,40,33,77,81,2
0.006045718444549251,0.0007517810226291242,1.049922129683748,0.08348032180293921,34,30,76,70,2
0.006466347419503205,0.0007944176185929632,1.166749206246457,0.09803546961388607,40,34,81,76,2
0.007512206243871607,0.0008766920780624476,1.2625584741901845,0.1211678164407102,32,28,78,71,2
0.007039968672421462,0.000916098197011726,1.2694822163464627,0.13694511173898477,44,42,76,78,2
0.007136928215931699,0.0009129984521492724,1.2061494645805824,0.14173056899408867,36,36,76,87,2
0.007230185560743506,0.0009902822534351011,1.2002173314138411,0.15095933344508122,38,42,78,84,2
0.007299172356234096,0.0009252351013703737,1.133327839575452,0.1376124218265274,28,32,80,85,2
0.007225949779487681,0.0009357773350367887,1.2119545708362718,0.13933334805415287,34,34,77,78,2
0.006479052863907858,0.000921872672927795,1.1582842468797727,0.1336239065901646,40,38,79,76,2
0.006124566282650237,0.0008953242860668044,1.1373435642796876,0.126449579771959,40,28,78,81,2
0.00639674481761148,0.0008865639740704162,1.1362791622181805,0.12645677599573468,42,24,76,80,2
0.005211947994147811,0.0009544292358701619,1.0130104082915685,0.13033675824854424,48,34,78,78,2
0.005337582576868854,0.0009550867837598477,1.0365821365344143,0.13310182296339795,48,28,78,76,2
0.004895217502264143,0.0008925949361915944,0.9509479939440387,0.11924393099380927,42,26,79,79,2
0.0006175256449458699,0.008242748494407856,0.10815755523784008,1.2071836345750515,44,40,74,66,3
0.0006132982555457415,0.008123805356260705,0.10527128340956274,1.1644312513856883,34,38,77,66,3
0.0006697758527455118,0.008273446297598781,0.12210742910934343,1.1710848132703777,36,36,80,62,3
0.0006936710215354927,0.00748715115648542,0.12804615774049913,1.0781273049666895,40,30,83,65,3
0.0006713138101600527,0.006394081838451882,0.11970363055921822,0.9375901708160312,38,28,89,65,3
0.0006669683374985815,0.005835284843891393,0.11766588806186937,0.8498658331781214,34,26,87,66,3
0.000572165114488043,0.00519902441216569,0.09447957367854783,0.750024248493134,34,30,88,74,3
0.0005212470911342433,0.0052616661488797045,0.0859651578006867,0.716803923941498,28,30,87,69,3
0.00048279060006259985,0.005106754286053248,0.08077014551737634,0.6860216277068869,30,36,83,65,3
0.0005986958393681776,0.003828549169447783,0.07292994587265948,0.5581566022823724,22,28,72,70,3
0.0005772207120728757,0.003022105680735292,0.06551116852735689,0.40322665040055605,22,16,56,59,3
0.0005341843117783539,0.0018527439433347211,0.04950384617674603,0.25570193140804104,18,18,41,56,3
0.00029452978512654274,0.0007804886104031077,0.024124778970932875,0.08874954627887557,22,24,32,56,3
0.0002946285795038327,0.000853682674835455,0.024342048993254786,0.09720108252262216,20,30,36,56,3
0.00029999573040940234,0.0012041472616083576,0.02530029423065406,0.12609182664677415,24,20,34,56,3
0.00028887937186888673,0.0010714906175165746,0.024892745151822902,0.10997717598598161,18,20,32,57,3
0.00028317863212294034,0.0017168811838536152,0.024842247035861274,0.1814515083069881,22,18,38,56,3
0.0002814632351807261,0.0020365406531100867,0.02603324796328587,0.20624123338083117,20,22,46,58,3
0.00027427855830940617,0.0025215291384484886,0.027554936885947415,0.29356418615401186,20,22,54,59,3
0.0003046094663791885,0.0030800805829187426,0.03100570462927021,0.38761813632493003,24,22,58,59,3
0.00031916658606550186,0.003162550746270063,0.03366504861848844,0.40224907175629143,28,26,59,63,3
0.00035440370272258833,0.0040067207757830126,0.04075947385758728,0.5087676477350401,30,32,57,59,3
0.0004035878863578662,0.004587451779674512,0.05039872955375561,0.5649737103100702,30,30,59,57,3
0.00043211702552729586,0.0057141124087830815,0.059908945898776184,0.6491059491974013,26,24,60,65,3
0.0004892351062397047,0.006709944704439352,0.06845959896030966,0.8966645660155794,34,42,65,68,3
0.000522885689119911,0.0076052276423343845,0.08008328027349002,1.0402330982580925,30,36,70,78,3
0.0006224175081516056,0.007657596453740487,0.09286780205619038,1.0699439999471683,30,34,75,77,3
0.0005947281049409649,0.007973470040408916,0.1002363273951795,1.1528106916645262,34,32,81,81,3
0.0006505025642586739,0.007144642372029615,0.11088201157862819,1.0713944970957194,42,32,80,79,3
0.0007007388184009522,0.007001829065732562,0.12232267544594566,1.0065045322130617,40,36,78,79,3
0.0006582097671430723,0.006894492326994565,0.11652123022260429,1.0859757705915478,36,38,77,75,3
0.0006678806268567041,0.007566443707852175,0.11648887469082501,1.1051761570013598,34,42,77,68,3
0.000647277009074496,0.008114881313851942,0.1125895889583949,1.165211935657612,34,38,76,69,3
0.0006298417882755755,0.007822806893027903,0.10245130634899986,1.159582411241449,34,38,78,69,3
0.0005919142981535937,0.007908610401244189,0.0991666697333348,1.1510278351165482,36,34,80,67,3
0.0006353943868843086,0.007701806312407523,0.10723194552010133,1.161737434525216,34,32,80,68,3
0.0007318530780366626,0.007779422115973194,0.11837956569091962,1.1392217950325503,36,36,78,73,3
0.0007061320780841104,0.008165818851250763,0.12564528859814994,1.1606189884050704,40,34,80,73,3
0.0006511893646434747,0.008490067129119734,0.12185209334007333,1.160381570943354,40,26,84,67,3
0.0005959180890220397,0.0071779926246480445,0.11065202034837186,1.0623274839264898,40,34,80,68,3
0.0005335249750880481,0.006600345894077868,0.0970774570345816,0.9695569819404635,38,32,78,60,3
0.0005567164980196932,0.006624284305148843,0.0990823766272936,0.9998811329228156,40,38,78,61,3
0.0005767892309593616,0.006821378647926309,0.11011227185358778,1.0999087758930546,40,40,74,62,3
0.0006112248924697069,0.006453611314423632,0.11530084909787446,1.1019712486705582,38,40,77,65,3
0.0006129365605454741,0.006190919109533896,0.11235442485140018,1.0473835473634194,46,36,80,72,3
0.0006068402159323033,0.005800303802061848,0.10713964809336603,0.9639584284879283,32,34,82,75,3
0.0006357663574925979,0.005773896353647054,0.10344396372234989,0.8654850383028584,34,26,74,74,3
0.0005824533000738843,0.005519777572442277,0.0999171892804477,0.8202332363935185,34,20,80,73,3
0.0005945872680133548,0.0065127667453815504,0.09766797056213061,0.9242765814329366,24,22,74,65,3
0.0003741780075365117,0.0011979629241700867,0.04818563446581978,0.09484637172433434,18,22,68,40,4
0.0002007181386630895,0.0012867490109273712,0.02520657215604379,0.10209446069267668,28,20,70,40,4
0.0002915392769199342,0.0013153397831954371,0.032482490109868,0.09928745709445365,28,18,66,39,4
0.0002783925361393178,0.0014710499459474919,0.030369136374126197,0.11863938737029621,22,20,69,44,4
0.0002753284740649052,0.0015506148906798294,0.0328082432837854,0.1251396337399788,24,20,61,40,4
0.00024052375671773738,0.0014491687897096519,0.026941187766870395,0.12079393443882384,16,18,63,42,4
0.0001973005994501834,0.0014040955622024412,0.024363520240010803,0.12365389771206338,28,16,65,42,4
0.0002071576595378198,0.0010882756853693347,0.025162539357293703,0.09946658807866793,28,20,70,46,4
0.0001907334360536936,0.0010506689274751636,0.022293756923904562,0.09733359480494991,28,18,73,40,4
0.0001931478085666083,0.0009677023202152272,0.023733675478839998,0.08807542736447983,30,20,70,40,4
0.00016735940119481037,0.0008460405063937297,0.01833370782166015,0.07544336877217472,28,20,70,42,4
0.0001624670171663326,0.0008585723813639785,0.019221361707762945,0.07480748815973494,30,22,70,42,4
0.0001920574439583046,0.0007678791613696994,0.023042244368026685,0.0635637022526902,26,26,69,38,4
0.0001811760835325325,0.0008043684732605053,0.02297323072542333,0.06660758553806534,32,22,60,44,4
0.0001929557507119416,0.0008540711708780037,0.024731803117051303,0.0697420554665048,30,20,60,42,4
0.00018059960981022294,0.0008569551463731007,0.022831935510097927,0.0679610309271069,24,22,55,36,4
0.00017853485407946584,0.000860915527863972,0.021906374579287197,0.0676473957480082,28,20,58,38,4
0.0001722941674195365,0.0008962092605486823,0.020414195021627696,0.06758072911893497,26,22,62,35,4
0.0008050504202628773,0.0032333197699570947,0.09334865683942303,0.18299782080930216,6,6,59,40,4
0.001205438897504142,0.00313194378159922,0.12842103290552362,0.18631236636250031,13,6,55,41,4
0.001164221660755856,0.0030287730565538677,0.12485638191272805,0.20527954962232633,12,6,61,50,4
0.0010749310538671264,0.0010165901328417972,0.11742925517351374,0.11890892097819221,10,28,71,64,4
0.0005969775274218943,0.0010136321553717053,0.04923624833864797,0.13226351709436163,4,26,64,68,4
0.0003293977623660268,0.0008190105872191189,0.02231138139654806,0.11782162313069808,18,36,40,70,4
0.00031756949731893643,0.0006700013448543138,0.020553854861414318,0.10242968779610725,16,34,40,64,4
0.0003205131731942357,0.0007206029041024599,0.02071581782574633,0.10249127799187874,18,34,38,61,4
0.00032413023264941753,0.0006085026888084399,0.021167983132142004,0.08716100920326411,18,30,33,64,4
0.0003291077114461254,0.000618016891634812,0.021007560139050304,0.08745007136603512,18,30,36,62,4
0.00032934990444208085,0.0006391781309057057,0.02157057185234735,0.08288886049986612,18,28,32,64,4
0.00034489162032440654,0.0005273005998936203,0.022257673473619958,0.06774799674387,14,26,32,63,4
0.0003449874696873002,0.0005331416816111575,0.022028080929251723,0.06696401052525731,18,24,33,60,4
0.00035113511082233886,0.00048351719387943067,0.0228365816940376,0.06574338281033668,14,28,34,59,4
0.0003487223298911884,0.00037869027426605387,0.023631157160296817,0.05461927358742448,18,24,32,59,4
0.0003557163073381946,0.000386227359446856,0.023538696208515064,0.05504659216219734,18,26,34,58,4
0.00035692292014176895,0.00038925958507112423,0.02394335115632938,0.055170151625551916,18,24,30,60,4
0.00036441558038554994,0.0003845361531937053,0.02351860823646047,0.05344816501920225,18,26,28,59,4
0.00035616930884552043,0.00038145602288704595,0.023326717170160487,0.054045491348531184,18,22,28,60,4
0.00036158078536670945,0.00039060948629710977,0.02364417830942541,0.05577437503058833,16,24,30,60,4
0.0003619169397253326,0.0003544863636945378,0.023802070263654992,0.0536902018818708,18,28,28,64,4
0.0003634630846306444,0.0003739774208782479,0.023466726468946528,0.05610950566347462,16,32,28,61,4
0.00036810721584527623,0.0003714812814217016,0.02357028066540684,0.05521187858233248,18,24,24,64,4
0.00037381137124426546,0.00036879678964285367,0.02344817668519689,0.05508986552677633,16,30,26,64,4
0.0003724594753892632,0.0003861539905679514,0.023807547920639945,0.056772607847241946,18,30,24,63,4
0.00037726336698579285,0.0003686325605691651,0.023920503602881844,0.05541940523379555,16,30,25,60,4
0.0003744729201842488,0.0003750700905179889,0.024454353823918123,0.05623667308662322,18,28,21,60,4
0.0003851152686379368,0.0003982296200144648,0.024822748764070826,0.05745771358912296,16,28,26,60,4
0.00038253516742648244,0.00038777079754880197,0.025353354733190392,0.05750407126486224,18,28,24,59,4
0.00041569194678867273,0.0004256681722956654,0.02902554446107478,0.05935795360602554,20,32,20,61,4
0.000525579322162966,0.0004336439288038032,0.035570707998806746,0.060006237836184265,20,34,27,62,4
0.00042453269020332237,0.0014549191735910166,0.05131369731839596,0.1483140304890165,31,22,61,52,0
0.0007259847126381732,0.0015692863184881979,0.09374735518030212,0.16993288877849663,20,25,64,54,0
0.0012677620497735015,0.0017922700258878768,0.15962092324719593,0.18635309931967314,20,20,64,53,0
0.0015934428130269897,0.002149742014886014,0.20181767216126292,0.2139799512762097,12,26,66,50,0
0.002096374432469403,0.002606989425889354,0.29465160563142145,0.2527807652882518,20,16,68,58,0
0.002241998762842985,0.002753079183895898,0.32155715504371807,0.27774472416121526,22,22,70,58,0
0.002236120775507421,0.002595845799621024,0.32910758996750245,0.28968353194493385,28,26,71,60,0
0.0027068925163341666,0.0027296870287057025,0.360032933472414,0.30937003387762124,26,22,76,60,0
0.002683921805121875,0.003127004228876224,0.34193527744181484,0.3380035477634647,22,26,65,53,0
0.0030171257854044774,0.003617888448880767,0.35231152416167877,0.3775512755825748,24,27,67,49,0
0.003055420478086446,0.004240520444821089,0.39197375206082713,0.4216987171647936,28,22,67,48,0
0.0029199517437791004,0.004204645072702847,0.3535268405344479,0.4548949688374903,26,26,63,55,0
0.0027805976852947932,0.003938384194304655,0.3890131310227242,0.40561554559310653,28,20,66,67,0
0.0030736844615543977,0.0033567202975465487,0.4110568643684254,0.39875198349423097,28,20,67,62,0
0.002618353017226036,0.003192756781351913,0.38724446629562986,0.3656688626266335,34,28,64,71,0
0.003016958855836572,0.002707617699364124,0.4410682146931602,0.32120172435813543,28,22,64,69,0
0.0027427541452680272,0.002760882153071813,0.38057499020088925,0.32411349216574775,26,28,68,65,0
0.0025373586691094714,0.003134834146782285,0.3585589716864406,0.33496449810277906,24,26,64,64,0
0.0022698183128609757,0.002758170921759475,0.3241658304634769,0.3139999697932219,24,28,68,62,0
0.002161744213078266,0.0029450195911055444,0.3044491392101864,0.32784008522852387,30,28,64,61,0
0.002064004679691796,0.00291015561541994,0.30486158571525257,0.3194629226950492,26,28,66,63,0
0.0017557078691752815,0.0024735652566254523,0.24873560464498656,0.2887428768444753,26,30,70,58,0
0.001962140640190439,0.0024446342937800834,0.2865358579194411,0.29586495003232444,24,26,70,62,0
0.0019380381609093674,0.00256086364548948,0.2731201470143399,0.30905556630191733,30,24,70,62,0
0.0005109643221513074,0.0010173648079973138,0.06186850549532586,0.08551742914457425,26,16,62,64,1
0.0005115229076161076,0.0012809474598253527,0.06391087486898993,0.10787415798282654,24,16,68,57,1
0.0008056478534996718,0.0015118638481826127,0.10425283208598873,0.13629943287508098,26,18,64,56,1
0.0010805381947337005,0.0017218694384260643,0.1321479028077476,0.16055411378528525,26,22,66,55,1
0.0013951432374338102,0.0020393807034960556,0.17646638282133875,0.1724731444356269,28,26,63,50,1
0.0019700566784489264,0.002321527002787915,0.23523640974976331,0.18521917118077866,26,26,56,49,1
0.0021951303485973224,0.0025358009983147333,0.26281251167507663,0.20946266346312384,32,16,56,54,1
0.0025469544492960723,0.0030637551396063534,0.33400439685294353,0.2668972983670457,34,22,57,47,1
0.002422699244564465,0.003129120308061193,0.32410756746822905,0.30892632752811633,28,26,56,43,1
0.0025983020639552363,0.003117964207670989,0.36157976514556345,0.3324572678508621,28,26,60,44,1
0.002557671527204084,0.0032209200603567556,0.39150472454408325,0.3536915121791232,32,26,63,45,1
0.0025085512904166243,0.003227664944285319,0.3634753928828547,0.3347163938173404,32,30,61,54,1
0.004239738350528326,0.00354309352994763,0.551144083492481,0.364443917985265,28,30,64,55,1
0.005079463384160024,0.003601617917937952,0.6227163806188597,0.3839109130081529,24,28,64,63,1
0.006064073415793546,0.0037805754221138747,0.735913788606593,0.41922982098182304,30,28,58,61,1
0.006676588292604233,0.0035020680329081195,0.821975446021994,0.4428203669224072,32,28,60,61,1
0.0064295594411622825,0.003535584936899202,0.8012463972481884,0.44460803249700426,32,28,58,62,1
0.005887475633609577,0.003585255962607338,0.8005552579642876,0.4567092621373587,32,30,64,62,1
0.006247402061910279,0.003697700896084832,0.8778983660303816,0.4611148066562714,40,34,65,65,1
0.0067269646684879605,0.0038727542886605477,0.9166836904732979,0.4859352404234282,32,26,63,62,1
0.006982058130627616,0.003952502295025992,0.9682704873239546,0.5024604145517083,34,30,69,57,1
0.007411699146294676,0.00434769640617152,1.0571588061091854,0.5427073217900146,30,28,66,58,1
0.00723511476349449,0.004257072241024088,1.0171452608243916,0.5188417790142216,32,28,62,61,1
0.007343044162702428,0.004167680313806325,1.1212751606945612,0.5082074150198428,38,26,67,64,1
0.0030885319123504684,0.0008365206752622775,0.3853960531172111,0.06264133301925441,28,21,50,42,2
0.002375421740798869,0.0007560873848557477,0.3137068784685524,0.058106582388980456,28,16,66,42,2
0.002640330010065946,0.0007442192991808826,0.37307707605415624,0.061714071414646535,26,21,64,45,2
0.003237681549186676,0.0006962968117044273,0.46169834267179666,0.06100662175706499,26,20,64,45,2
0.0030668066569657475,0.0006974244548949044,0.4695971811598833,0.062726461551636,28,25,68,55,2
0.003204252365722313,0.0007505490708457887,0.49633760758121503,0.06709356976446905,28,22,64,54,2
0.0029413415711491255,0.0007528257948652957,0.4623301784391712,0.07148772479379273,26,24,66,60,2
0.003273084277921211,0.000746706531160566,0.4794102997341064,0.07273191619827979,26,18,60,58,2
0.0038615104604831653,0.0007592192281570972,0.5509721655040352,0.07703255794408974,24,24,65,60,2
0.004378361844688778,0.000861343220458263,0.6872386622974752,0.07740393354456498,32,20,68,62,2
0.00531401306177289,0.0007831323095895321,0.8428619171141957,0.07976971437840646,30,24,76,71,2
0.0054547676769635366,0.000845690459176649,0.925157364957169,0.08730906113139315,32,26,75,78,2
0.00583486268588339,0.0008470619484391548,0.9591530652728147,0.09532234532996724,38,28,75,67,2
0.006388180723319159,0.000903066144333205,1.0180108402842865,0.1192874949698774,36,30,76,73,2
0.006445807983688077,0.0009113257716638574,1.0615900743197362,0.1279322497094333,34,39,74,74,2
0.007114529128486496,0.0010663997228108329,1.1997747498903126,0.14159481812957783,32,34,76,76,2
0.007485253072780145,0.0010681669969402887,1.309282093313965,0.14906990538182743,32,32,75,81,2
0.007045119466293386,0.001110025904537039,1.2346158161296201,0.1472823554583505,34,28,78,79,2
0.007038907028033246,0.0011117864238567503,1.2159439150260816,0.15718634708426993,40,28,78,82,2
0.006909873380484655,0.0010652937301129642,1.1303209498273021,0.15875708494727458,40,36,77,82,2
0.006312017305795613,0.0009927556863807184,1.0422157803932484,0.16973504231960773,36,40,82,77,2
0.007187024907691357,0.0011013276649782513,1.2448137934711787,0.18467386092364033,36,42,77,73,2
0.007550430624040172,0.0012104999608507174,1.2622187722089935,0.19999715878944288,38,40,72,78,2
0.007005975256794146,0.0012419866254473,1.1669764597138346,0.18254021974679835,42,30,74,73,2
0.0002925124505419698,0.0011888055690793679,0.024403508841903353,0.13419672011690706,18,28,38,56,3
0.0002996747927662808,0.0018104513161004998,0.025006177893397496,0.19975829624493008,18,30,49,57,3
0.00029590930306852407,0.0018237947819383987,0.02454784898846901,0.2228526669416498,20,30,54,56,3
0.0002838537166091829,0.002413688092555069,0.024869663780803852,0.27943909313857895,20,24,46,59,3
0.0002994695006351642,0.0035621689746651183,0.028729811709143856,0.40847994368521673,26,22,54,59,3
0.00030699235734523106,0.004064110981186021,0.033409114569605484,0.47108282859070866,24,22,72,58,3
0.000345648846034892,0.00480217564798206,0.03986247761877501,0.586916658295408,28,26,68,62,3
0.00034244814657490935,0.005351047920264156,0.04742236695862942,0.6907913197831536,32,28,76,61,3
0.00036071687399264146,0.005569559093514971,0.052996242606016306,0.7002526733017594,38,24,79,66,3
0.00041941862961747243,0.006870364809798485,0.06315445103479647,0.8281265756496207,38,30,80,77,3
0.0004557514454581247,0.007449117368813066,0.07190880808844395,1.027670481245958,40,28,79,75,3
0.0005332110433932065,0.008223604654882047,0.08320767678647199,1.178129952812763,40,34,78,70,3
0.0006072453504524916,0.00875182241162345,0.099653135587481,1.2497064457020812,38,36,77,66,3
0.0006237555700976958,0.00860303317895667,0.1133622747178386,1.3639085182261204,44,30,74,67,3
0.000680283810549265,0.00824422012410212,0.11979017985999896,1.3153219883186262,34,36,79,70,3
0.00069829099266845,0.008352995855190122,0.12924799048709934,1.310077772017541,40,36,82,73,3
0.0007679222731925082,0.009012981612596725,0.13660094329816305,1.4686874353622394,36,34,81,71,3
0.000748097247808849,0.009261706115967081,0.13232834492912715,1.4945415976749836,44,36,77,70,3
0.0007283255690108503,0.00902593859246334,0.13882888368349652,1.5184673279147485,46,34,77,70,3
0.0007272028545780476,0.008757305101076121,0.13802916859443026,1.458481862665327,46,34,72,68,3
0.0006856416309138601,0.008224391261627814,0.13202201585718665,1.340489489956931,50,36,82,72,3
0.0006860991506198009,0.00785582207769765,0.13143942837233227,1.2340189839765283,46,36,78,74,3
0.0006262721643912704,0.007716423881458176,0.11376635556287736,1.125910828058839,46,30,78,72,3
0.0006305688936290432,0.007881070883559571,0.10738118839643875,1.1801602031743184,42,36,74,72,3
0.000318676603145745,0.0014150157022927525,0.027348493441593166,0.08915430703799652,25,18,52,33,4
0.0003263978762914173,0.0013052458344532027,0.025732340996808524,0.08607077657149224,22,15,57,30,4
0.0003179191967286277,0.0013543795188065146,0.026915747968499815,0.08297658697554133,25,16,53,35,4
0.00035636969602022007,0.0012028332683486644,0.028021275669454754,0.08397971961947673,16,19,48,27,4
0.0002989143228688524,0.0012114890813143952,0.02595602207813368,0.07482068427078921,24,18,44,29,4
0.0003341244908545676,0.0012521553039778635,0.029643486821572147,0.07527151001013244,20,17,58,24,4
0.00030507957577948766,0.0012790436097742833,0.02873379677766387,0.07461155911816059,23,18,53,28,4
0.00030280626784146496,0.0012808931383897588,0.028019298059263,0.0711979377687372,20,18,58,29,4
0.0003418160872900262,0.001272487546809791,0.02695951792419923,0.07102086915689503,23,18,64,26,4
0.0003241342930788818,0.0012272567623537569,0.024111143756336082,0.06792091835152506,28,16,66,34,4
0.0008068165751759309,0.00131752284979919,0.06871475172479938,0.08408600778421414,8,12,58,35,4
0.001975383675233818,0.0014538731921906079,0.21696060324767263,0.10364890328225321,10,19,48,40,4
0.0029498895828440853,0.002524062148908705,0.3566648849958058,0.17023876220922865,14,10,59,49,4
0.0033676524995500594,0.002648929647225959,0.42495896463772403,0.17902524241756607,18,12,73,51,4
0.0036031757899341937,0.0023737659552661686,0.4852003607576072,0.15753896181238086,20,4,82,59,4
0.0022528725395277115,0.0008087893032978271,0.36688049574431153,0.07859752256129174,28,22,82,66,4
0.0020655251034700146,0.0008039839781095803,0.28942324747199977,0.07259654466287267,24,16,78,56,4
0.001623985906499922,0.0007881982665296891,0.2424268167422378,0.07112685332323741,18,20,72,54,4
0.0008847970705203843,0.0008478133877406672,0.13391102949247355,0.07317916203511739,20,24,65,52,4
0.0007255290351706584,0.000829739951173176,0.1150402396264427,0.07125854900836726,14,22,72,50,4
0.0005636617435702283,0.0008885741779845953,0.09563880050077095,0.07557068350949242,16,20,73,56,4
0.0006734115834326987,0.0009941164886284567,0.09901735647150459,0.07801798692050757,14,18,62,46,4
0.0006516935921844646,0.0010844271996769675,0.09777009807872994,0.08749118959449326,14,18,70,43,4
0.0005596971586878269,0.001243651079178175,0.05842834061757631,0.09610195340380219,12,20,56,42,4
