f1ch1,f1ch2,f2ch1,f2ch2,f3ch1,f3ch2,f4ch1,f4ch2,Category
2.125928101960816e-05,0.00017224626503023542,0.0035907625970785137,0.018452822928607417,38,22,89,64,0
2.09517936703626e-05,0.00017979293021767203,0.0035176138833894377,0.01725363421364474,38,18,89,62,0
2.0929803361927013e-05,0.00020177437541048132,0.0036265632512645597,0.01904009838372191,40,14,93,50,0
2.3283398047240663e-05,0.00017627093336184744,0.0035730843664289022,0.01802821924193718,36,19,88,51,0
2.5683640502661784e-05,0.00018168035956528896,0.003797020638709717,0.017229888802925714,32,14,86,57,0
3.9563791802512595e-05,0.00019590624260909577,0.005604717707113792,0.020485228549062522,20,22,75,66,0
0.00019706618382563166,0.0004894463044036721,0.02189825878431186,0.04606427202048767,12,12,65,68,0
0.00045180747441810233,0.0009193017465287673,0.04708093846334529,0.08328044581721526,12,10,63,61,0
0.0006031380390463254,0.0011185675464299217,0.071542543295987,0.10924841574997343,18,14,64,65,0
0.0012236216483358742,0.0015503073595731472,0.12552891682846207,0.14359893618427177,22,18,56,69,0
0.0014784405900270128,0.0018324003863544227,0.1517285732929271,0.17581836392386554,26,18,60,71,0
0.0016885549243041383,0.0019121553371851921,0.17566723569377596,0.20851046076008364,24,30,59,67,0
0.0019055758369692982,0.0021682852565949053,0.2017931804668566,0.24598393537389066,26,28,53,70,0
0.0019467468296704082,0.002138853784145304,0.20138254198793729,0.26626846759982065,28,28,60,71,0
0.002148143097295287,0.0021502804658419215,0.22360688146183713,0.2616122365223304,32,26,59,70,0
0.002042763765135418,0.0023539762454088055,0.2165728612610311,0.28680285836725766,24,26,62,74,0
0.00207357031782825,0.002628473149525571,0.2362629651209271,0.3134644176485845,22,24,60,72,0
0.0019629691143256372,0.0032297061208782186,0.2188197791860327,0.3499702371967892,18,24,62,65,0
0.001674654745462833,0.0031712360605668333,0.2075624093024248,0.4109321381869362,24,32,64,69,0
0.0017665296547943405,0.003042405849159822,0.21438272105661807,0.40947217128075303,26,28,65,70,0
0.0013806857253195754,0.0028133991337595038,0.20214212756089103,0.42106727223381046,34,32,69,73,0
0.0015215201547026116,0.0026652215728204098,0.22168172002014122,0.4123809474756993,28,38,71,69,0
0.0019443661458955618,0.002443335861658966,0.2358673315040143,0.38144713804437996,30,34,68,71,0
0.001934363581155323,0.0024277835099097947,0.235739545560938,0.3578097216946232,28,32,70,67,0
0.0018300461791230912,0.0022106950938049494,0.21867323824426468,0.33098773985838986,22,36,64,69,0
0.001702827569299122,0.0023897421532471314,0.20983828740454946,0.3422626778604538,28,34,63,64,0
0.0013852737505602691,0.002480399147539056,0.18848449774281395,0.33977221288394355,36,32,67,61,0
0.0012311449965145243,0.002409123989232406,0.18045568384206984,0.33669018498958814,34,30,67,62,0
0.0013672738424563746,0.0022623268961145717,0.1990330301511548,0.3134287209904052,32,28,69,65,0
0.0016748953451188706,0.0021648443437796163,0.21296586539547965,0.2797314354741618,26,30,63,71,0
0.001673085999722989,0.002022945043744246,0.22148534872610212,0.28846170514054337,24,26,59,72,0
0.0016052951433170484,0.0019228568897052128,0.21307795443743946,0.2809256151051715,24,34,59,70,0
0.0016978515885570234,0.0021494232123074296,0.21592199168493645,0.30976118070858133,24,32,61,63,0
0.0014540694569952395,0.0023939407435163585,0.18982076155511024,0.306187747077758,32,30,66,62,0
0.0014480249837089349,0.001955618869260687,0.1802626670756595,0.28242661621989645,34,32,63,64,0
0.0015324292039287704,0.0020922822032687066,0.19126707891841996,0.300967128789683,30,28,62,66,0
0.001603852157059034,0.001970680010457734,0.1905062282072959,0.27543143354185673,26,30,62,65,0
0.0017027143581740786,0.002008654906458564,0.20564908790280817,0.28769513753570647,32,30,57,63,0
0.0017648523429380288,0.0022153716682874773,0.2041751781586859,0.3078358313048614,30,32,52,60,0
0.0013851957609650014,0.001981561767060208,0.1585645554037512,0.24722354690006318,26,26,56,56,0
0.001009977980338208,0.0017361907519323153,0.11254096434960154,0.21915047116262462,22,24,56,58,0
0.0008267803124815412,0.0019347422237874592,0.09621633127130123,0.21716586414029126,22,20,60,60,0
0.0008073671263811456,0.0019691696347568584,0.08747443980329528,0.19370426833608778,20,20,62,60,0
0.0009563319025929774,0.0023278525800266635,0.10943908591894498,0.26437598849724187,24,22,60,59,0
0.0012056246696899727,0.0026052874445591312,0.13874510347103075,0.3140704592207297,24,26,61,64,0
0.0016866852987048049,0.002250814975586063,0.1845419418832243,0.3299537222359489,28,26,59,63,0
0.00155135022517965,0.002208843185582291,0.18318643349703853,0.3377498191753263,24,34,59,70,0
0.0017173733105211777,0.0022991313100826573,0.20279760662006982,0.33418953924891937,28,32,54,69,0
0.0002446846143527874,0.0004627598396705571,0.02809574808306204,0.046251744516942445,7,17,58,63,1
0.00043591690862531806,0.0005430723633530537,0.04789972973920034,0.05734432182857311,12,22,58,63,1
0.0009666558001259619,0.0007646030499769576,0.09694734396683524,0.0817676074122783,18,16,50,69,1
0.0015026665306606896,0.0010897362688685312,0.13952241629169748,0.12639735248638267,22,22,59,68,1
0.0017665257373968158,0.0013644963818436034,0.16679078396984387,0.16296877234212231,22,24,59,63,1
0.0022290420494065263,0.0016972764841183413,0.20684271888012704,0.19972500870498155,24,34,62,69,1
0.0020280236779054925,0.0016744883695814618,0.21028078955791052,0.21678543312857645,30,30,67,74,1
0.001978715194797773,0.001654214003961912,0.23156304496955785,0.22802261598887466,26,26,61,75,1
0.0019343624801056699,0.0015122232766229238,0.23379127386423923,0.2165303301655736,28,24,59,81,1
0.001684889047637203,0.0015991330623236,0.22578068494497366,0.23222265879299947,30,32,58,79,1
0.0018105313048451383,0.0017432058615090445,0.2314696266166162,0.2563195587856953,24,36,61,70,1
0.0018660874788201953,0.0018011344313363458,0.21544713638046117,0.26146133997115606,24,32,59,70,1
0.0016324572225995346,0.0019039330701135218,0.20332555704592356,0.2660963156468256,24,28,69,65,1
0.001562482550715795,0.001992776980171912,0.19729991273506536,0.27686636869640247,22,28,71,67,1
0.0014235363953158135,0.0018517333479507016,0.17408916586039092,0.25805897467888783,26,30,74,70,1
0.001483318787472174,0.0019218650010125165,0.17029082699008052,0.26527353991565616,26,26,78,61,1
0.0012718489383103896,0.0018575537585403471,0.16886928167531445,0.28065028727413244,26,32,78,68,1
0.001171920441937113,0.0017917193626808725,0.16407303678841154,0.2501328134177594,30,36,78,75,1
0.0013621106632076164,0.0017397208997038838,0.17883362301897457,0.25983821852725747,26,34,70,69,1
0.0014758514626500283,0.0017425978109933485,0.20251086231780968,0.23536616587309708,26,26,64,72,1
0.001401783026871231,0.0014679541377904323,0.20203764874893704,0.21464670015022289,26,36,65,76,1
0.0015413338156265387,0.0016535584990032212,0.20232136580566576,0.22619415590123212,24,32,61,75,1
0.001545961014692141,0.0015264319786633329,0.20095461178155133,0.21416790249870876,24,36,58,72,1
0.001385453931094116,0.0016948048849557771,0.18483483811232188,0.2351087750450837,24,30,58,75,1
0.0013777490967516086,0.0017363045036467464,0.17790107504758082,0.24415162116989955,26,34,55,71,1
0.0013041779651714715,0.0019085105117159853,0.18487950782455165,0.27078333009556593,26,34,60,64,1
0.0011904268618702517,0.0018501607026293824,0.1803252532898142,0.268474540528716,26,32,67,75,1
0.0012829067958272738,0.0017805273769107338,0.19518388886573868,0.25798801246836683,30,32,67,71,1
0.0013320404440402773,0.001808026085608233,0.2036297858387656,0.26684511849247755,32,38,67,68,1
0.0016846311782986135,0.0018001109428046871,0.21818623036833734,0.23834644764334265,34,32,67,67,1
0.001778340297501002,0.001903294195780004,0.22764572995285107,0.26068394195223543,34,38,67,62,1
0.0020880488682351443,0.0018954380893303968,0.25491277553405284,0.25497344672078626,32,34,61,60,1
0.0021188804422174728,0.001905948512436191,0.2625176481495378,0.2530817802199259,26,32,61,59,1
0.002080628015855957,0.001969786630194521,0.2684535928599161,0.25559587148701546,26,30,63,57,1
0.001978298543292162,0.0018523567301845026,0.2719967321699645,0.24445855170019848,26,30,61,56,1
0.0019105833044966655,0.0019238303916389715,0.2587529660412299,0.25645303815972187,28,28,63,61,1
0.0020422068446290438,0.001857208476024651,0.2640261936335505,0.2615662848080371,26,36,67,63,1
0.0020445385934633347,0.001773439149122098,0.27674397749455465,0.2546051067356064,24,34,69,63,1
0.0019337715811417152,0.0017504923356887324,0.26673319736056716,0.25846670381100945,24,38,69,65,1
0.0018723154203536077,0.0015629511619429204,0.24842796793320573,0.2369415705962698,24,28,70,64,1
0.0015777583143682687,0.0016600684903931894,0.22394857427824627,0.23787956570342517,24,28,70,66,1
0.002005905398664143,0.001843798205794224,0.22264969177890595,0.2474330473046097,22,32,70,69,1
0.002794058643558388,0.0021492753711996144,0.26810511225572864,0.2871543147477707,20,28,61,64,1
0.0027881382987003022,0.003106149335550204,0.303026934870178,0.3918909756365729,26,24,56,72,1
0.003080468224302432,0.0034926803331309184,0.3743222180230895,0.497645227296694,22,28,55,69,1
0.0029096831794523338,0.0040598142361832346,0.4053629354059709,0.6173185735043709,36,30,65,70,1
0.0028113045474824523,0.004518817796561806,0.4216430415614861,0.7001040521017702,32,32,64,69,1
0.0029398322398826106,0.0047758927651038174,0.4434119750676493,0.6797589386943924,38,24,66,61,1
0.0001046370361718898,0.0004466814294225032,0.01285571532877772,0.03828006387565959,26,14,74,55,2
0.00011442180832173638,0.0004416552989834973,0.013247826932812887,0.039683299602125445,26,20,69,62,2
0.000294898500269773,0.0004152567387898476,0.02656689828888109,0.039369959419974974,13,20,62,61,2
0.0003913811611839331,0.0005119283551445134,0.04034758546134657,0.04708174825852488,22,18,49,53,2
0.00062726070097497,0.0005231025101595016,0.0600605563097026,0.05183465243787271,20,24,49,62,2
0.0009378228899448364,0.0005396027985549066,0.08919614077844255,0.058528620402878026,22,22,50,62,2
0.0012412711709715606,0.0006632173915120542,0.10830031779449097,0.07214133749118865,18,24,54,57,2
0.00163140395666131,0.0007407122979524191,0.14537769363244873,0.08101558121708698,14,28,54,53,2
0.0018228480997375968,0.0007232743891257246,0.17321247510759127,0.07932574229813032,20,24,57,56,2
0.0021344020751530852,0.0008123441755202315,0.22610711494745328,0.08523076635879234,18,28,54,55,2
0.002426609653868785,0.0007572105576304417,0.27123585201245076,0.08051155361983774,20,26,54,60,2
0.0035457247793657014,0.001060508336943329,0.3901435016939975,0.09762179209365572,20,20,58,59,2
0.004481430252376898,0.001236270315530445,0.5560118747688624,0.12902859629737987,30,20,61,55,2
0.006625664578931018,0.0013980174754156633,0.804690648011376,0.14559788385107833,26,22,66,51,2
0.00783366834918136,0.0017590234223930593,0.9600788061261821,0.18225083536202333,26,26,62,48,2
0.008088775698805804,0.0019671213598932277,0.9994076781470643,0.190190121674415,22,28,61,53,2
0.00785292506335275,0.0018315936348587813,0.9558641195162483,0.1832194072925946,24,22,60,58,2
0.006065990921954214,0.0016329235124978513,0.7517320874135397,0.1694647621649835,22,22,64,63,2
0.005375437229384871,0.0015076849043581266,0.6847165892898522,0.15712833250346828,26,22,66,63,2
0.00534346722467078,0.0014777622202292791,0.718601737585645,0.15351188161376328,32,28,60,68,2
0.006151849394773042,0.0017160870690384974,0.8356567077976332,0.17265075682609216,26,28,59,64,2
0.007271737537358207,0.0018021964996749482,0.9532466761952193,0.19581896745121072,34,30,57,64,2
0.008583650831707076,0.0015848597143364618,1.1612940368997746,0.2030043707850912,30,30,57,69,2
0.008246822632933222,0.0018580316566612985,1.1244377887662629,0.21662140406567318,30,24,61,73,2
0.008061364441339699,0.0015649983389300751,1.1029560596057049,0.1982940144116232,34,32,65,73,2
0.007251224438687675,0.0015014067426993168,1.1183293350517576,0.18907402846511684,36,24,67,71,2
0.006545403382108109,0.0016657706423944306,0.9232784760293449,0.18816274762385404,34,24,66,65,2
0.006751423736806729,0.0015833494035008325,0.9853641255130983,0.1808736370017395,30,24,64,73,2
0.0072845511973711604,0.0016787769226371914,1.026462575030836,0.19295282213235873,32,28,65,70,2
0.007642981618017671,0.0016233607110012769,1.06856996978659,0.19625254063812592,32,28,66,71,2
0.008545065596537536,0.001616971466955355,1.2666242645383263,0.20099455541135697,32,34,68,70,2
0.008020149544041464,0.0014060327750742318,1.1982784775574018,0.19161477953862047,32,32,68,66,2
0.007453492877967147,0.001341707570003054,1.111394167598285,0.18002088509589534,40,38,66,67,2
0.006554368875887735,0.0011944446756069226,0.9943052042325395,0.16979364154008733,40,38,65,69,2
0.006191102480430878,0.0011281976652188469,0.9649966801577864,0.15758875201212352,42,34,70,70,2
0.006043984544106033,0.001089099094020196,1.013083240146074,0.15257462449492037,46,34,72,75,2
0.005865881248442359,0.0011258310394996445,1.0116324481743943,0.14929742070583468,44,34,79,73,2
0.006531376891059534,0.0011353686369404749,1.0493275798419117,0.1476447132601346,40,28,73,69,2
0.006278906409233901,0.0011547197206355569,0.961081718642603,0.1489260648073108,38,26,70,69,2
0.0054069205380355475,0.0009727336922678225,0.7507208813437196,0.13093675709340646,26,32,69,71,2
0.004427214769196754,0.0008419389524848336,0.5927651360564669,0.12023082082069314,30,34,63,63,2
0.003668134029451922,0.0009082725675622841,0.46018374169652015,0.1174402420009708,20,32,64,58,2
0.003294738829718694,0.0010616473139324239,0.35702199602127555,0.10952585901806283,20,24,55,52,2
0.00508301477445128,0.0011971983364893963,0.5377323274071849,0.12609594793822582,22,28,54,52,2
0.006217106220725197,0.001213794483625145,0.6522655922338224,0.12685428021431794,22,24,49,58,2
0.006531544453006538,0.0011733781417611814,0.6841252649233781,0.11662351675994902,18,24,52,61,2
0.005832345731439317,0.0008723268852973694,0.685805878560033,0.11185382365436365,26,28,63,75,2
0.00482491228584436,0.0007540940696503085,0.6391562770977516,0.10999293606611488,30,38,61,78,2
5.9042277395619124e-05,0.0003814666886252232,0.007703834952132239,0.042795276770751935,24,22,74,60,3
8.748132294274397e-05,0.0005673467774917675,0.012112967289008257,0.05896353057976858,28,28,69,57,3
0.00013344168310135476,0.0008317550752665146,0.018005624155434427,0.08696958688675975,22,18,71,55,3
0.0002165222928767444,0.001357510090909658,0.027531243186107265,0.13742902450723127,20,16,65,59,3
0.00031093907705085505,0.0020767795460387563,0.04213627137423699,0.23880124353948884,28,20,67,56,3
0.0003784159196413632,0.002625953950448871,0.05550929440016191,0.34831337834450754,40,28,70,61,3
0.00047238391689946715,0.0032986616486156877,0.06966212483394946,0.4491608051674924,42,32,70,65,3
0.0004895819491089461,0.0035953776519463115,0.08071152326828414,0.5717538028698291,42,36,82,64,3
0.0004997944073244343,0.0036520363325985494,0.08312299005839806,0.5911898723030945,34,34,80,71,3
0.0005336204277647744,0.0038987751836075703,0.08792585711606805,0.6405948562575854,36,38,76,69,3
0.0005785282006997895,0.0037057055583817207,0.09313679540014376,0.6417377226409663,30,34,79,72,3
0.0005538584561567685,0.003466029710051121,0.09092707161249483,0.5922742588826908,32,36,79,79,3
0.0006083208306533263,0.003963001569533827,0.09089967778981674,0.6185079374766282,32,34,72,73,3
0.0006610883768429617,0.0038684585240101634,0.09452958884450754,0.5768652450051902,28,32,72,65,3
0.0005704923061800527,0.0035907428202958114,0.09139699167070797,0.5948385153444857,28,34,71,68,3
0.0006453075854320875,0.004008002042383822,0.09208973444838371,0.6211244284075238,30,28,67,69,3
0.0006260138417754401,0.0040550962005904525,0.0916072045974227,0.6017532760311132,28,30,73,68,3
0.0006314433945602419,0.0040067040800057,0.09119845150151622,0.602938193410307,30,34,70,74,3
0.0006045002773375758,0.004212764129424628,0.08847723718471767,0.6058580843745864,32,36,75,72,3
0.0005952696872282734,0.003770882853771611,0.09223710739657237,0.5726144082214752,36,40,78,75,3
0.0006083405160468914,0.0036362363499561046,0.09823633493497196,0.5794095028690428,38,38,78,77,3
0.0006271630391271385,0.0036827640870202233,0.10582446821783906,0.6326213876304407,38,36,79,77,3
0.0006265595980543448,0.0034096079532246037,0.10564830086156318,0.5955473899635357,38,34,76,83,3
0.0006405194854776482,0.0036633504124343754,0.11095431361585076,0.6304541965057002,40,34,72,82,3
0.0006785780122294577,0.003962382892675396,0.11339419726541408,0.6879486912906313,32,36,74,81,3
0.0007120831543663142,0.004248588421003792,0.11172570390464562,0.6703711290801279,30,36,69,77,3
0.0007062449410702164,0.004469178272333778,0.11603396746286306,0.707130298184645,34,28,68,68,3
0.0006991650299105612,0.0044602301486740305,0.11501574255381639,0.7061202134611131,38,32,71,67,3
0.000685338454596628,0.00433060505170897,0.11902511137784225,0.6902274513266642,38,40,71,65,3
0.0007890996835802375,0.004718442353358856,0.11980108253974604,0.7155082102718975,34,36,68,67,3
0.0007595023305708122,0.004873192284087021,0.11935244527218432,0.6973358207133146,38,36,76,71,3
0.0008122504441767748,0.005334013641866524,0.11831665393226791,0.7720429268756943,34,30,69,70,3
0.00081723066232687,0.005222145002793622,0.11724306311164813,0.7558453507274909,38,36,69,71,3
0.0007066470814741494,0.004632227665802437,0.10175712840761562,0.6747160529080575,38,30,74,66,3
0.0007139323514067461,0.004791418206307905,0.1043626522999087,0.6731201259714494,32,32,68,70,3
0.0006735156522394274,0.0039435674690088225,0.09784586464615955,0.5863318866799052,32,36,75,71,3
0.0006041653409355417,0.0039244445135437475,0.09547266984825171,0.585271313834756,40,40,69,75,3
0.0006160737689919283,0.004286385413211232,0.09735933466896736,0.6524119990122845,28,38,75,74,3
0.0005576284204509534,0.004115293253196106,0.08639287798823173,0.6111613043832353,36,36,78,75,3
0.000584673540846637,0.004404368914017225,0.08237282245226106,0.5901976979993377,34,36,81,74,3
0.0005342088375001515,0.003742052749458995,0.0729380123280669,0.5476004082552423,30,32,77,72,3
0.0005562437415089804,0.003726142204634523,0.07295165768813368,0.528219515511592,26,30,71,71,3
0.0005880571612005835,0.003975144068832807,0.0831102444702371,0.5457803469429743,32,24,65,61,3
0.00061937773926158,0.004117505251977335,0.0914232470032556,0.6055506559868213,36,34,67,65,3
0.0006277102316528825,0.004431023046471336,0.0999594151296719,0.6706880977152908,38,36,71,66,3
0.0006869167810548318,0.004422425182717315,0.11282812267423618,0.6932665063169561,30,36,76,70,3
0.0006493397361496994,0.0040696544071454595,0.11334332490041014,0.711088500014208,38,40,80,73,3
0.0006599749025756165,0.004662152564115389,0.12022327913643946,0.7785163557245456,40,38,75,69,3
5.432966768441557e-05,0.0002081894169628609,0.007651773608405564,0.022039496623221595,26,16,85,67,4
4.324563683927615e-05,0.00021805027908780098,0.005871596407106669,0.02226047851977756,36,26,83,60,4
4.520658842114104e-05,0.00014171787795168263,0.0062864364099276095,0.01733186849484481,36,28,80,62,4
4.358598967728698e-05,0.0001473554658380575,0.005896796419873911,0.01722452879861622,30,32,82,65,4
4.86842688542912e-05,0.00015629757828015687,0.0065643078255153975,0.01830978502819434,32,34,85,59,4
5.1980684978908304e-05,0.00015903648820456086,0.006754253078128169,0.018110352760746545,22,32,78,63,4
5.168815572460998e-05,0.00017142301871615268,0.00645047504474059,0.017106892075740055,24,32,75,71,4
5.253089669299455e-05,0.00016102648598929705,0.00656172183187311,0.016417413303473877,32,28,75,68,4
8.453168191143291e-05,0.00015263678855683953,0.011393166212685834,0.01573308316702311,18,24,72,70,4
0.00011627899977796128,0.0001445092239959149,0.015297983784232637,0.015149163505620334,16,28,66,76,4
0.00012023765431146226,0.00013586285968768762,0.01641431170015732,0.01476317994331921,18,24,69,76,4
0.0001229638746614858,0.00013665190488399033,0.016731521264154656,0.015044656537044445,18,32,64,80,4
9.413187689680559e-05,0.00012181512156602011,0.01158790003600173,0.013768940394628903,18,24,66,80,4
5.0436440549623653e-05,0.00012723627384693593,0.007438444479154871,0.013959561562098157,28,24,75,76,4
4.981744204940422e-05,0.00014598603617058464,0.006629005156026342,0.015088155487443322,32,20,70,66,4
4.888922286471469e-05,0.00014474399787628493,0.006605294186664412,0.015439282693817443,28,28,75,64,4
4.472943800572871e-05,0.00015805347444284166,0.0060152224147260545,0.01579421116571208,32,20,82,64,4
4.209574941192079e-05,0.0001658525859271282,0.005975827332902204,0.016549087086644904,30,22,85,69,4
4.4484903305234516e-05,0.00015866217503816593,0.005869298619262477,0.01586199860103114,36,26,83,72,4
3.367637063393169e-05,0.00015758337877447499,0.005093842618196536,0.015439735288552109,36,30,82,71,4
4.17627055870895e-05,0.00014369149374802209,0.005238524267487375,0.014597700683985141,34,26,77,71,4
3.6299118200108304e-05,0.00012935672447574595,0.0052767703158282525,0.014063411423742333,36,22,76,72,4
3.798057187914199e-05,0.0001252171613960424,0.005144994166876389,0.013592427944994776,32,24,82,72,4
3.911686872999948e-05,0.0001298682545204892,0.005250788080143442,0.014191926686410923,34,24,78,70,4
3.74993887770262e-05,0.0001459024156103609,0.004904932390936576,0.014935584330899419,30,26,78,66,4
3.0749657475245396e-05,0.00012156160001319849,0.004436926913826663,0.012940025191532013,34,30,85,67,4
3.3800852768183056e-05,0.00013020311775754437,0.0047421341945336985,0.013883443532205024,36,26,84,74,4
0.0001246710410322903,0.0002543867265182217,0.012421879583882712,0.023048253438257886,10,12,88,58,4
0.00022268338536191807,0.0005061445714645054,0.018994010479475167,0.03964396655835527,14,13,67,62,4
0.0002468385198760532,0.0005303588364930137,0.022500901199951164,0.04107337853766314,10,16,66,67,4
0.00021587453867168691,0.000512668996936327,0.019094149964355465,0.04169597716579132,18,14,72,64,4
0.00018919163017253016,0.00044651245504389626,0.02028487652366785,0.037133007844724515,15,12,72,72,4
0.00010541968364131916,0.00017868019803454012,0.015197855594743095,0.02140397851785087,22,22,79,80,4
0.00010322804480970454,0.00019835599306423837,0.013789231506463093,0.02387224961208749,30,27,80,80,4
9.861877732725718e-05,0.00014944841103619743,0.012293325629553124,0.01889507726206467,20,24,76,83,4
7.683818954427601e-05,0.00015729148800549219,0.010818668774582292,0.01853193932031634,22,27,76,80,4
8.552277168568304e-05,0.00019691516148719166,0.010912815454419987,0.020669990968048852,22,20,80,74,4
7.918051634716003e-05,0.00017768261266287722,0.01006271566058735,0.019299350392903813,30,24,78,65,4
9.414094700476396e-05,0.00019769564078803614,0.011573152226093598,0.021511715943445163,20,22,77,61,4
8.863450571302375e-05,0.000154071073584672,0.010744377384382406,0.019559075379775772,22,26,77,72,4
0.0001201892079049954,0.00015817800843873092,0.015918525883011393,0.019827288015122388,20,28,71,69,4
0.00014449111784022836,0.00014452316182345443,0.01798646219753674,0.018101624480899012,18,28,67,76,4
0.00013050927283645122,0.00014640609953101388,0.01639424148647244,0.016762825027679742,20,22,65,68,4
0.0001254050213092598,0.0001604509484096494,0.016136727079382938,0.016402091083762768,18,24,67,64,4
8.294461504649622e-05,0.00014511331009505152,0.010047993884863568,0.014748384057428593,22,24,61,70,4
8.113948874352713e-05,0.00015842561220418642,0.009379331087018123,0.01595575546042607,20,28,68,69,4
9.056403088412483e-05,0.0001419666924527132,0.01037370591151876,0.015539880033129566,28,32,70,62,4
9.060097265999856e-05,0.00016866711671628294,0.010360657764736582,0.017656560888878684,24,26,72,62,4
0.0018125911200157724,0.0017619723426130494,0.21998709190924992,0.25607396070419214,28,32,55,72,0
0.0015295767123003675,0.001675322808330085,0.18202131063189858,0.23398320776766435,22,30,58,68,0
0.0013643930568385965,0.001784536979888386,0.1683689061589996,0.23914369458416998,22,24,58,62,0
0.0013190737483767157,0.0017855390261005486,0.16570956199773293,0.2528489555295567,20,24,60,60,0
0.0014907460023996977,0.0018194693708202215,0.19056624961735544,0.2554983848207083,26,30,63,62,0
0.001662287350459967,0.0023106198243655826,0.21247987661587706,0.3120665851583255,28,32,61,62,0
0.0017230583485610665,0.0024474429406951114,0.2144465907870392,0.3344554776301383,28,38,56,63,0
0.0015318371597450454,0.0026157615861157075,0.188518281369471,0.34030824136131105,22,38,61,65,0
0.0014110177110974863,0.0027342993772339146,0.16949622105799125,0.3539920518231608,22,42,64,64,0
0.0011909956751830495,0.0020685495465245477,0.13915839016266465,0.2567724866066499,20,26,68,65,0
0.0008198709616944372,0.0015030110464427807,0.09335040078814365,0.1752765008688666,16,18,57,58,0
0.0005247058463696213,0.0008682169045629374,0.05658795437938552,0.10454063018513063,8,8,82,54,0
3.26125748433278e-05,0.00017556658444385311,0.005593111377859541,0.016383035188228423,40,18,84,64,0
2.8910340803865014e-05,0.00015305617032682268,0.005114005266422852,0.01604195384026307,40,23,86,67,0
3.08901442437383e-05,0.00019262528897433798,0.00487567611807925,0.01713687784124676,38,28,81,67,0
5.462923273118272e-05,0.0003763992002879425,0.007812221414429802,0.03862278948705147,20,16,79,58,0
0.00033957703450508887,0.0006701515053931082,0.038927894156794866,0.06651302549296635,7,16,60,57,0
0.0005257394408226363,0.0013991055643122565,0.05913769314620253,0.14403141077329296,16,18,63,53,0
0.0008858233614479977,0.001791244521754922,0.10358915785732853,0.217278704148296,18,22,60,60,0
0.001114303598229003,0.0021690659002577485,0.13132039531498194,0.25936961522885527,26,20,56,67,0
0.0013047043043044404,0.0027711722579298243,0.14930865764144108,0.30110330933313495,28,26,54,66,0
0.0018583263935353673,0.0025584291426234015,0.19700313848294676,0.2915228413893296,21,26,57,76,0
0.0019568216222724277,0.002529146256799043,0.2376263138228911,0.30843511982537997,22,22,52,75,0
0.0021359534902999095,0.0022712927541395935,0.26318889529704576,0.3160084766556799,26,28,49,77,0
0.0025122392040394575,0.002287098985963392,0.2893664508045652,0.3179766012202114,26,24,48,77,0
0.002138877594670152,0.0022745326723754775,0.26800470847779617,0.3560822960493438,28,30,56,70,0
0.0020712340911307136,0.0022007652691602196,0.2768662195593546,0.3465122583299153,28,32,55,76,0
0.0020594846771598493,0.00262663407774227,0.2741469981469527,0.3804271591671818,28,28,61,68,0
0.0018691581219061721,0.0028146259031386093,0.2546665569342416,0.38296321911757997,24,28,64,63,0
0.0021375463123193884,0.002611828136022807,0.2596536165331218,0.35871287290963844,26,24,56,68,0
0.0018291443992359327,0.002710294548810616,0.22577242771428702,0.3508318684556047,24,28,58,66,0
0.0018659120385985802,0.002441385482192159,0.22839774973157348,0.3284890395361909,24,26,60,63,0
0.0017453261301531222,0.002166056165633577,0.2131256502850729,0.3160213128303098,26,30,57,64,0
0.0016296192675830348,0.0021878463812054104,0.2226278807494233,0.30928257628994077,26,26,61,67,0
0.0014273103953001012,0.0018889405276279986,0.21619817990873239,0.2853152837475652,34,32,66,71,0
0.0015702938315330464,0.001860672613687644,0.21941039149690963,0.279753388528667,34,28,62,74,0
0.0016888465261108527,0.0019081117716734503,0.23450875668229773,0.277595020216669,34,32,64,70,0
0.001826854627688066,0.0018162013793440613,0.24358222905235785,0.27291653031960406,32,32,65,70,0
0.0018649920849253183,0.0021151573836265055,0.26285468307341786,0.29477194972638465,36,28,59,65,0
0.0021805803779991434,0.002321197990496039,0.27025972998872544,0.322361245288716,32,32,56,63,0
0.00212525571495852,0.0024538060563137455,0.266893704162963,0.32237862405839807,24,32,54,53,0
0.0019189941915125424,0.002419381970256088,0.22967476115790053,0.3154723036173255,24,32,57,53,0
0.0017473442695115997,0.002374744942205813,0.21276549982625498,0.29211273524249376,20,28,60,59,0
0.0013770059890557311,0.0021065812938116293,0.18001402126772506,0.25700966432394035,30,26,61,61,0
0.001395547378834907,0.002115753041490466,0.1833787153237924,0.2601876261270683,30,26,61,62,0
0.0015270951095800434,0.0018639912567873745,0.1869543808002491,0.2569128989791416,30,32,57,62,0
0.0014316217426702201,0.0017227413984134015,0.19361195124999114,0.2468864663151012,28,32,59,65,0
0.0016708833450845549,0.0016736750640281334,0.21050169296897886,0.23806461948591823,22,34,58,68,0
0.0015504708509507456,0.0016303182761203136,0.19979236291581107,0.22004464505633892,22,30,56,74,0
0.001700480242973764,0.0022611562376626286,0.21385651207969844,0.3337767804925777,26,36,65,58,1
0.002058337565976822,0.0023177431687678445,0.24419818868644858,0.3476725314875855,20,34,68,60,1
0.001967225772762283,0.0022498261871932703,0.23316882657480645,0.324116740408536,22,38,75,65,1
0.0019481815056066171,0.0018880673536440626,0.23390379968757513,0.2974067617733929,22,40,73,72,1
0.002145486220486509,0.0022736956567578565,0.25080815650412236,0.3116107426953782,18,30,68,65,1
0.0019684864533365226,0.0020294322857330517,0.24360029626205046,0.29482024398985884,26,32,68,68,1
0.0020991670869413546,0.002068332474848202,0.24426179989580196,0.2944217684332452,24,34,68,64,1
0.0024630375031206384,0.002315231585220645,0.3025610446753087,0.32269030644357105,22,30,68,69,1
0.0026462113780245772,0.0025310250507889205,0.3206398366011647,0.34231631745673186,18,24,66,65,1
0.0022300733917913866,0.002205603278678216,0.27422871780604624,0.2828983392027217,16,24,49,61,1
0.001868140369131353,0.0019976415085842416,0.23055165143295156,0.23450328578998364,18,24,46,51,1
0.0010835913347508697,0.001345718336382491,0.1220621990628134,0.14814023368020374,16,14,44,51,1
0.00031050801769168674,0.0005754123442270351,0.035760013314978724,0.041861723702979324,24,18,62,51,1
0.0004040025012450591,0.0005387041643528797,0.04842985887071275,0.04458493271584109,24,20,60,47,1
0.000545780958317168,0.00044089602978790286,0.06712228181445462,0.03933962582756532,26,22,62,54,1
0.0005385451575662933,0.00042000825037715356,0.06695103372619553,0.039811485730057765,32,22,58,58,1
0.0006170895607282163,0.00038378652295309684,0.08267520650601082,0.04323415997453647,30,33,64,62,1
0.0006003298177825236,0.00045419727432065694,0.08493031049494186,0.053125960545579096,28,24,70,67,1
0.0006121578749802848,0.000540341978540203,0.07902264659765068,0.06581146244974859,22,26,71,65,1
0.0007911881871937336,0.0007050558106137454,0.08615531314962796,0.08680940686632409,20,28,68,60,1
0.0007619186341555234,0.0008467950942968372,0.08840292223241751,0.10475243315622351,20,28,72,66,1
0.0008816082501533535,0.0010819930804950504,0.09551636720285467,0.13460327166298885,22,24,69,63,1
0.0010067707501022383,0.0013981475419319316,0.11623124963468036,0.169200512828705,22,26,69,57,1
0.0011906152719541733,0.0013801448810339166,0.14041445714289003,0.17293256629159223,24,26,76,65,1
0.0013842041807166348,0.0013962559396527557,0.16923375996985196,0.1778208549979554,20,30,70,65,1
0.0016149041254802637,0.0015258590565252648,0.20674540147072426,0.1858347598731737,26,26,64,63,1
0.00200424235459141,0.0016737501757418585,0.24837905479250524,0.21526535429199564,28,22,66,65,1
0.002326642353522513,0.0020933087857074495,0.26990549414185233,0.2585001725559996,22,24,68,69,1
0.0023420336743414224,0.0022578477942147225,0.25754187222751496,0.2888641775127731,20,24,75,67,1
0.0022123932391315644,0.002282535541524101,0.264888521698418,0.29762892563390503,22,24,78,67,1
0.001956725384617058,0.001993071343442268,0.2508500187419442,0.2709621170685598,22,22,76,67,1
0.0018368677526545139,0.0017712594571002618,0.2526220582934542,0.26626768086754493,22,24,75,74,1
0.0020839040155106185,0.0019173368407632526,0.2880872319622002,0.30752943389979687,22,34,77,72,1
0.002176945644221573,0.0018434916007460248,0.3136073371433228,0.31888086973827934,24,40,74,80,1
0.0027798489427353686,0.0021159305300935097,0.36596279692890415,0.35393941153964004,24,32,66,71,1
0.0028649375488574236,0.002729835276339984,0.38006792339243606,0.43485030088314125,26,36,70,68,1
0.0028284477537632246,0.002667884212146072,0.39151451000783977,0.4251435788030162,24,32,67,69,1
0.002718455846646321,0.002896230357742516,0.3895763603797632,0.44085216159755064,28,36,66,58,1
0.002489009723039686,0.003229208551913705,0.37510443031934126,0.4621201075161319,32,34,69,62,1
0.0029427103469483063,0.003116239000461742,0.4155841641270762,0.4427768780965483,30,32,68,64,1
0.002934511865121012,0.0036661905560126675,0.4064281191483794,0.5097716480979129,32,36,69,70,1
0.0028135360260632186,0.00400033399250663,0.4029647579854898,0.5529428091622113,28,26,70,70,1
0.0029385455869077237,0.004178170425592959,0.39314041311445047,0.6147990429982793,26,28,73,73,1
0.0026992103541040656,0.00432636546613416,0.356907426572111,0.6258683295880091,26,30,67,64,1
0.002854902262470496,0.0038983122672271854,0.3518822163163388,0.5750668598251089,24,26,63,64,1
0.002717140938147949,0.0037941400705084243,0.3293119941342233,0.5580158211557787,24,28,70,65,1
0.0026932678604827576,0.0031158515120591535,0.34087233173223197,0.48950605952357285,18,38,68,70,1
0.002772056257519348,0.0033963090155065766,0.35501040006945,0.5286746895184459,22,30,72,75,1
0.002550866049630241,0.0036067822349843204,0.3517164066153185,0.5413433132507764,24,30,71,72,1
0.003329681279145923,0.00075839400091405,0.4888634143860245,0.10570782646239509,36,36,70,78,2
0.003294632271105959,0.0007303722164758173,0.49477738713143793,0.10778408956787137,34,34,67,77,2
0.0032162361317775064,0.0007309136211460948,0.48339512860347633,0.10444649957149907,34,30,68,70,2
0.0035801336951940166,0.0007351433319362881,0.5059528295520029,0.10805635877580268,36,28,59,71,2
0.0033487854192633,0.000762753986961857,0.48828290197021584,0.10735924890711478,36,26,62,74,2
0.003228102119717755,0.0008017875797528721,0.47105683733929316,0.1111324534220293,38,36,62,71,2
0.0031432082351226407,0.0008455592186488581,0.4513036689056656,0.1153581254227149,40,32,65,71,2
0.0025505534455162637,0.0008723728519083984,0.38459294470668814,0.11147748717870654,34,28,69,69,2
0.002501608887509467,0.0009239674057979749,0.36249003569038946,0.11071824316368314,28,30,74,71,2
0.002504885262404182,0.000971933119483364,0.3524954621073461,0.11768319244337348,26,30,70,67,2
0.0031769633828362177,0.001059338942696164,0.38104784813293024,0.12119496294895996,24,26,71,68,2
0.004029249620163706,0.0010979946879172081,0.4410335939047589,0.12464344426866028,28,30,63,70,2
0.004358114322419621,0.000992178477002057,0.4682202248012821,0.11380323037377157,30,24,65,68,2
0.005128440844460256,0.0011152529710556972,0.5275864670029511,0.12745508227057825,18,25,55,68,2
0.0045172309327087675,0.0012306995840117424,0.5405449547855679,0.12673454306071003,22,28,60,67,2
0.004247191894784404,0.0012261673018730806,0.5453492728559378,0.1291459995004546,26,28,66,67,2
0.0048392716877995135,0.001466640963012889,0.6512603730729369,0.15786417773504996,34,24,65,61,2
0.005270203216642542,0.0014322187388542823,0.6660959713586434,0.1429441721622626,34,26,67,66,2
0.005126915016412424,0.0012183872983227166,0.6721948181217203,0.1457784169383904,34,28,65,70,2
0.005599590974156691,0.0011266134674538305,0.6721799262529637,0.1400894211768388,36,28,67,74,2
0.0054449111138225904,0.0009726321663456472,0.6475924556458029,0.1353746256263152,30,34,71,74,2
0.00563999306891831,0.0008770511086403869,0.7180207006669403,0.1471102922696133,28,40,73,73,2
0.006065651968326472,0.0009362234765732643,0.7801153909657206,0.15388857630144998,30,44,73,74,2
0.0063279709410798525,0.001022378066016981,0.8664739197498241,0.1596360793877056,30,36,61,73,2
0.005911357859433565,0.0009915514253445844,0.8610475328157604,0.15432489428216845,34,36,67,75,2
0.005373377073488227,0.0009800220496993682,0.8005365319758724,0.14787787475138933,36,38,70,82,2
0.005435327588918613,0.0008818107925441729,0.8277895133250559,0.13756966480619767,34,32,72,82,2
0.0053165508949580866,0.0008742285511337522,0.8036859888547067,0.1448315695944462,36,40,75,79,2
0.004975115767895567,0.0008438665711718863,0.7725080759699753,0.14136270319766703,34,36,75,79,2
0.005671206694868492,0.0010404493289480966,0.8400883210215842,0.14667042125608412,36,38,69,74,2
0.005517118359749051,0.000995747982499246,0.8223783071987817,0.15694401848834044,32,36,63,72,2
0.005601537869839851,0.0010287277793993375,0.806082323979184,0.15548352439894672,28,32,65,67,2
0.0051715590363441725,0.001081355636077611,0.742328197708162,0.16055737163416348,30,26,70,69,2
0.004409216097223763,0.000998220841807683,0.6689982116386989,0.15233253131728078,28,34,75,70,2
0.004500942056254359,0.0009857720010693306,0.622516161477996,0.14315871685581416,32,32,72,71,2
0.004706006930060852,0.0009486223635529479,0.5872167434338093,0.1413845461677769,32,34,67,75,2
0.0046994931263178745,0.0008887232914884574,0.5945678555787715,0.1323270093068156,32,34,62,78,2
0.004301216374981247,0.0010486755978131588,0.574784552734402,0.13401871238143517,30,28,65,73,2
0.004381352210496885,0.0010900857953590824,0.5608346628996285,0.14259981259973245,34,28,71,74,2
0.003845915390169028,0.0009423583020608988,0.5261799361617958,0.1297751039554554,30,34,73,74,2
0.004168814845214972,0.00101098143651188,0.5218411496072772,0.13762404315920682,32,34,72,78,2
0.003672032678059706,0.0009111940952603077,0.5375855643315183,0.13009256936856958,30,36,70,81,2
0.0034842476956286907,0.0008499726815830518,0.5029924738963175,0.1176584007222389,38,30,69,79,2
0.0037674005723174553,0.0008540996717198622,0.5250882360445611,0.11934001433466251,40,26,69,78,2
0.0038559880385790517,0.0008359365119075539,0.5394591535538789,0.1128092629203922,38,28,69,74,2
0.0038932862433859344,0.000785603249919106,0.5214859063141787,0.11491435852240467,34,40,64,73,2
0.004189630082137075,0.0008024775849228798,0.5292251756363121,0.12648770307539886,34,36,67,75,2
0.003968120665494525,0.0007926537558988199,0.5487105596525715,0.129418887664568,36,40,70,79,2
0.0040059539563263415,0.0008378052399429488,0.5361288560814812,0.12935355346568378,36,38,69,78,2
0.0007911934248270049,0.007105577666171541,0.12147698676655107,1.1153218716291797,36,36,67,71,3
0.0008309489964393843,0.007572008619282867,0.13258653396556644,1.1735611959309002,40,36,71,72,3
0.000878076247224653,0.00797582351040178,0.1406464534756752,1.235097864338735,38,42,66,68,3
0.0008997693804009139,0.007498727573026505,0.13827170692993598,1.1807039509862418,42,36,68,66,3
0.0008114429333913968,0.006119255023007252,0.12739988165524588,1.0555401833849172,38,38,70,71,3
0.0007144625260133207,0.005718788433889457,0.10672777282804444,0.9715318047658137,38,34,72,68,3
0.0006560877761732612,0.005230391008306847,0.09460239391113356,0.863459470567386,32,36,73,71,3
0.0006178466549881241,0.005160149523187417,0.08775420199493188,0.8206462007704939,34,30,71,76,3
0.000639587273183066,0.006018282869368901,0.09683927423032722,0.8863387296515758,32,30,74,70,3
0.0005736656044117899,0.005046550182739268,0.0836657121570281,0.7378696918318454,24,26,74,61,3
0.00047579083711594793,0.0038785944959079254,0.06895274918838902,0.5931322895428162,22,24,79,65,3
0.00044562383263542396,0.0035735404534333656,0.06364169178142699,0.5076964047900506,26,22,79,59,3
0.00037731451576474825,0.00229224510088174,0.05259156202694025,0.30448273817242777,30,28,73,68,3
0.0005454647075382793,0.002923092827959959,0.07907420838386416,0.4133694178521661,28,30,68,71,3
0.0005695867619888855,0.003304418612035144,0.08729391258483872,0.48434095416840184,38,26,70,71,3
0.0006479186933751321,0.003668140683331576,0.10171053012303473,0.5580392061252016,32,32,69,75,3
0.0007434778565924879,0.004256047564026347,0.11610643764005832,0.6263760037515996,32,36,72,72,3
0.0006445529700017509,0.00410175469133445,0.11264874150066399,0.6180106035733142,44,38,77,72,3
0.0007022798825613677,0.004362880482249782,0.11682592062864507,0.6505010723905461,38,42,78,75,3
0.0006882793379206636,0.004611656368125672,0.11187411513921947,0.7050068555237663,42,38,78,73,3
0.0007012523395453888,0.004927238689118797,0.10244451479798863,0.749472669150645,40,38,72,70,3
0.0006477805343852541,0.004964714194024918,0.09290695978767273,0.7607296191825242,36,40,69,70,3
0.0007203700318995189,0.004875786337409929,0.10499824879506339,0.7803379148391841,30,38,64,68,3
0.0006710206892516657,0.004451370704659917,0.10140519542438188,0.6948395069535191,28,38,68,72,3
0.000714120141201267,0.004075067053374855,0.10710592899114658,0.6661817775169561,30,38,72,67,3
0.000679333569707749,0.004393958316793415,0.10773319713147515,0.7052997783596967,34,36,67,67,3
0.0006099776990585732,0.004272724884353426,0.09661084469124658,0.6863435046129693,30,32,77,69,3
0.0006403131652837336,0.004739381035096001,0.10138120779701372,0.7428220708313281,30,38,78,70,3
0.0006032412656318266,0.004844653871298082,0.09808004807331583,0.7969465867892568,38,40,82,71,3
0.0006249402396286179,0.004628364892882431,0.10053162095863896,0.7524666720500467,36,38,90,70,3
0.000708532440333193,0.004875614570979313,0.1060688500683114,0.7580514264437976,30,36,84,66,3
0.0007012133238904629,0.0048468409914818565,0.10259843688876336,0.7123308826966803,36,32,81,67,3
0.0006078859469453099,0.004428498362740129,0.09109812164595053,0.6656412036339838,34,36,77,69,3
0.0006124463774959251,0.004305347118555013,0.09519490997254354,0.6972054698269504,30,34,75,75,3
0.0005412726723552928,0.0042263733374647006,0.08324926103883483,0.6380314110571446,30,42,77,75,3
0.0004954197765820137,0.003941872356846053,0.07925268752684492,0.6457459462235132,32,42,74,73,3
0.0005365127368326354,0.0040190302961436,0.08164295589946083,0.6408008041926838,30,40,76,69,3
0.0005138878824567435,0.003633398441975801,0.07284709740744028,0.5444484084464901,34,34,74,73,3
0.0005170809717646705,0.003608647353421681,0.07319658222634023,0.5710105300810149,32,34,73,67,3
0.0005301924303781155,0.0035176644247433986,0.08010011438965682,0.5687591049303503,36,34,70,72,3
0.0005194183956679317,0.003336525998828339,0.08652855332477195,0.5637021711485419,36,36,70,70,3
0.0005653912740684858,0.0043396463818526085,0.08954967228952089,0.6824505124514849,36,30,68,69,3
0.0005785891835835126,0.004574385725913381,0.09197653757627941,0.7301825784326658,32,36,68,69,3
0.0005993064377889884,0.004615517164829512,0.09429282717689315,0.7119052312563503,38,36,69,67,3
0.0005672759227900347,0.004599066860790035,0.0896312729205552,0.7205878070443462,34,36,72,70,3
0.0005249731693890141,0.004086272036640297,0.08626342902052081,0.6399885556386387,36,34,75,67,3
0.0005131004712430674,0.0036856386072102493,0.08249842302249458,0.5791181759287043,36,34,77,70,3
0.0004561302146199674,0.003603545168350626,0.07063512030141628,0.56148721484971,38,34,72,71,3
0.0005053060082833259,0.003582540915815557,0.07441597639790265,0.536720497213523,40,36,64,67,3
3.1010276392694406e-05,0.00022608120124069242,0.004860986244524603,0.017232885232141816,32,18,95,62,4
3.819066437199047e-05,0.0002379458416666725,0.005287057656720701,0.018627875904066782,28,12,87,67,4
3.4837060182028766e-05,0.0002242832290796765,0.005227906152847792,0.017757481380569904,30,10,88,66,4
3.607213297087669e-05,0.0002940050880905865,0.005003047232388525,0.022988777289205443,26,12,90,59,4
4.081565785616557e-05,0.0002485036237064208,0.005480462458702559,0.02262068306472273,26,16,85,65,4
4.143629257783595e-05,0.000273829396982041,0.0057293810924675375,0.025414386526018674,34,22,87,64,4
4.554415825605295e-05,0.00025404773899996894,0.005717839987376653,0.02538072111137485,36,16,85,65,4
4.30563175051917e-05,0.0002243547677311096,0.0056615186944562875,0.023354310015543223,28,20,87,64,4
4.666328008454826e-05,0.00024361375063792267,0.005390970598223971,0.02345492396889784,20,22,79,61,4
4.1121251634682616e-05,0.00021242460658620565,0.005539175909189546,0.02119048395757791,28,22,72,59,4
4.584511252797265e-05,0.0002286765586413132,0.005954420273049814,0.020774850829245357,26,22,72,61,4
4.7402357032718946e-05,0.000250478610119504,0.006315817598318199,0.02376993864684109,30,24,74,48,4
4.500791781334094e-05,0.00026514296040634744,0.006368294166426079,0.02557146831544971,26,24,82,54,4
3.737087005435861e-05,0.00028313897178321894,0.005937673388372554,0.026769143207120774,24,20,77,56,4
4.090279235860186e-05,0.0003179322685256852,0.006096622009777402,0.028386933861416865,26,16,80,57,4
4.26158036160237e-05,0.0002637396446173823,0.005830261539966892,0.024206078894352084,24,14,80,60,4
4.490770876155199e-05,0.0002721730820257021,0.005760510159574124,0.02501969280644036,24,20,81,52,4
5.1229775281144845e-05,0.00024506346373509113,0.0065726096874837115,0.02118696586949591,18,16,85,55,4
9.825886534578413e-05,0.000539449435588452,0.01354748328353708,0.0455800238386045,26,12,79,51,4
0.00014576667078781258,0.0006551103199360291,0.016054982365373685,0.05505818302569034,15,14,78,54,4
0.00015892193869098813,0.0006615783626053741,0.016415371761681816,0.05727127675105943,16,16,61,54,4
0.00017050372982387846,0.0006072763535732319,0.015507166601854092,0.05104089065258447,10,16,51,50,4
0.0001099833945686848,0.0003843285398055162,0.007760535323399956,0.036837328896631376,14,20,58,70,4
4.712328243515586e-05,0.000239060506212627,0.004514739409426035,0.02987270933595039,18,26,67,62,4
4.8748212789508075e-05,0.00022104336726068996,0.004529968241653809,0.028255778972523772,22,28,81,67,4
4.822776806552913e-05,0.00024317959632266822,0.004207615137632014,0.03222120426155201,16,28,81,72,4
4.589634881944401e-05,0.0002321742133715422,0.004015307155317222,0.029225428046669295,26,28,77,71,4
4.666003680965948e-05,0.00024130887559337816,0.004137618691590157,0.030981285053187268,20,28,77,70,4
4.608065153044737e-05,0.00023953843127885586,0.00405663048666381,0.030421148128695175,26,28,79,64,4
4.838928576775026e-05,0.00024218286942144168,0.004113215221801247,0.02828375160637146,20,24,71,61,4
4.837529583036302e-05,0.00020466555574250104,0.004273326813073247,0.027547671837279505,18,27,70,63,4
4.716061962021608e-05,0.0001982558219315802,0.004202539944203377,0.02704515324857685,20,32,69,63,4
4.489754123040402e-05,0.00018450428353164767,0.004028207604384307,0.026675270476409465,22,38,74,65,4
4.851086724845788e-05,0.00020276750983312284,0.003874512201338196,0.02553882732240438,18,22,76,71,4
8.280105878565519e-05,0.00018487661967718567,0.009229831830877815,0.024077149704494618,16,26,77,72,4
8.881776891366433e-05,0.00021081655472549152,0.009376137960135492,0.028723644019474703,12,24,69,70,4
9.721337720674553e-05,0.0002063974001202468,0.01021444865539103,0.026979139747703888,14,26,72,70,4
9.804069180064969e-05,0.0002040015499728984,0.010273541573251676,0.028718624923805513,10,32,72,71,4
6.293197595249313e-05,0.00018698301552234724,0.005677141521953397,0.02725739290518048,23,34,76,70,4
5.863252600157577e-05,0.00017820742668523055,0.005332970583835663,0.024411736068530077,18,32,76,68,4
6.923629926909594e-05,0.00019364777976952382,0.0051979509807787245,0.02576233470245,15,28,74,71,4
5.735621389282412e-05,0.00020799093161241088,0.005231569927220574,0.024230122673059948,22,26,76,72,4
5.754508086244179e-05,0.0002159163459294804,0.004512437613195905,0.02679066625673122,16,26,79,68,4
5.030749463549344e-05,0.00018288849838980173,0.004554819244223919,0.02269876357664855,20,24,79,64,4
4.910641577675761e-05,0.0001984883114681727,0.003966069724392764,0.02432548567380641,22,22,89,58,4
4.740722133022036e-05,0.00023499701583449536,0.004185415174329543,0.027563521498653945,22,20,82,53,4
4.6736169988027555e-05,0.00020283422092730303,0.004144319038665399,0.025814687005305963,20,24,82,59,4
4.461234412857909e-05,0.00021704033846397925,0.004339966928433162,0.030185816207524585,26,22,83,65,4
5.1198685688048604e-05,0.00021522911901988108,0.004361706368544615,0.028302450151858803,22,23,75,67,4
0.0017777656000263166,0.0023423631215804207,0.20389540542901338,0.33750285169842553,20,32,56,70,0
0.00214136625260562,0.0024078573503662328,0.23596558714273427,0.3433753992256927,20,34,55,71,0
0.0025558819720519588,0.0022410378619962504,0.29545402244769237,0.3287379271321233,20,34,64,68,0
0.0028975093607626016,0.002280598398278322,0.3293252778571593,0.3265481720943146,28,36,58,72,0
0.00307420930741911,0.002503187466949465,0.3514664563540888,0.3292614269805174,32,24,56,64,0
0.0028495875367903706,0.0021837506127106833,0.3125994404795129,0.29297004509580477,32,34,57,66,0
0.002618040104549072,0.002257898573405085,0.26493496748081974,0.2938245257472229,28,28,64,73,0
0.0025241546628956236,0.0021438100451536867,0.27782123419302507,0.2633003852172118,30,26,63,75,0
0.0024232553200755173,0.002163066855303991,0.2720972628316773,0.27877769642991995,28,28,67,68,0
0.0024266164065315414,0.0023202665632266074,0.2704970198646781,0.2909789236558587,26,28,63,66,0
0.0024464497928078687,0.0022594340970020833,0.28767578822759926,0.29431489312397596,28,30,60,66,0
0.0023151735590899907,0.002379667381347973,0.27070125428643044,0.3162407782022528,28,28,55,64,0
0.002271374433013879,0.0019881912915707543,0.28057402778031576,0.27264859226614063,30,36,58,72,0
0.002165910836675917,0.0019012245213941128,0.26176231135487,0.26069677600822216,28,36,58,70,0
0.001867141427669889,0.0016557932854856176,0.2385004382728147,0.23710440504537136,32,28,60,73,0
0.0017059469029723497,0.00143673572737308,0.209159308510551,0.20734254132685023,26,30,59,80,0
0.0013436597416386631,0.0016169815933680747,0.1670903630015384,0.2247935431729608,28,30,66,73,0
0.0014604614350831808,0.0016276901754818278,0.1696125849734401,0.21405106978584756,24,28,58,72,0
0.001499106786079842,0.0017983613745559618,0.18417332650258442,0.23838260507106476,22,24,57,73,0
0.001846375982903489,0.0020280500046001974,0.22175872003278882,0.2631254259969737,26,28,49,66,0
0.002076137502842704,0.002216172671412411,0.2380329067357723,0.28559655101105813,30,26,48,70,0
0.0018935975204490841,0.0023486520407872617,0.23388561655202003,0.29927496007923976,34,30,53,64,0
0.0020127353406049473,0.0021518581855944855,0.23922619459146655,0.29449639183675497,28,32,54,67,0
0.0019801741321166097,0.001961651050962023,0.23085365216357426,0.28368581024146333,24,28,55,67,0
0.0030654978070603993,0.004594766393926511,0.4133783392662433,0.6562099768945236,32,26,65,64,1
0.002787987009331252,0.004637671977138052,0.38795675978295313,0.6401028697494078,28,30,63,59,1
0.002580032836100978,0.00501173081376837,0.36478819947778435,0.6905794907718239,28,32,69,56,1
0.002709614937779962,0.005147109928970977,0.3591170267709048,0.7490365129384539,26,34,72,64,1
0.0024611660002011844,0.005483084752268695,0.35349247347418,0.8275036733970513,26,34,73,69,1
0.002699794705481217,0.00510043742799746,0.37001456470587485,0.7839765388839267,24,34,71,75,1
0.002749198103804327,0.0050183346837613056,0.358194278503301,0.7407891927744057,30,32,65,72,1
0.002706107881659381,0.004664966092969011,0.35941238580971413,0.6959110841667087,28,32,63,67,1
0.0029599199161686757,0.004407507518418647,0.36471593276809144,0.6373351829847936,26,32,61,68,1
0.0027138553073096745,0.004171988986638246,0.36855351798386043,0.6242968226539929,26,26,63,68,1
0.0027218029395238963,0.003499561122251091,0.37219784822031454,0.5708903477741151,36,38,61,75,1
0.002599705475721849,0.003361971499841494,0.34193725404775055,0.5959491536828334,28,38,63,79,1
0.0024324592461440727,0.003172822484987486,0.32629910847916466,0.5441963967167424,32,36,66,80,1
0.0018874901581954167,0.003358731262568575,0.2980479440193631,0.5385918091658378,36,30,69,79,1
0.002001458682797662,0.0031099742461042795,0.2798968177614538,0.5002999772489879,28,32,71,73,1
0.0022757570309367907,0.002775359673215148,0.2824345373560052,0.4162415454491716,22,32,65,64,1
0.0022120833128345344,0.0028290450413950537,0.2856584547361185,0.38716709677869143,22,26,65,65,1
0.0021159593713062975,0.002997428436027748,0.26237513568548326,0.3814653537921218,28,22,67,60,1
0.0021359097621652017,0.002718699065987709,0.2533840909002991,0.36785309372703096,24,24,63,62,1
0.001713387017275906,0.0028586329628048253,0.23035226994273156,0.39034586783776287,32,28,69,61,1
0.0015198603968567823,0.0026305524503853843,0.2042739088525426,0.3860818496452821,36,30,68,63,1
0.0015113715525807863,0.002637246750864372,0.20157035683096244,0.36381904596666803,26,32,67,72,1
0.0015702281005968344,0.0023555578956294134,0.20996270355908714,0.3624969917668561,32,30,68,66,1
0.001729234162486929,0.0024052355099893276,0.21943186562415976,0.3592775798814469,32,32,63,62,1
0.004698671851333415,0.0007992989364875402,0.6706426950898359,0.11574362706972888,36,30,67,77,2
0.004897418455368098,0.0007907144718847124,0.7274660716701475,0.13175604178327108,42,30,64,75,2
0.005649710329609208,0.0008695045255267523,0.8025231391236093,0.1336991642958395,38,34,64,78,2
0.006115834566056986,0.0009771962114488606,0.8588759758370285,0.1444464181610855,28,32,70,76,2
0.0062572335188826765,0.0009873979938274495,0.8532334558284405,0.15261565758429244,26,36,67,80,2
0.006845350201277911,0.001001981773545698,0.9475117465147336,0.14676997480496565,34,34,67,78,2
0.007036797972501361,0.0009824640038854405,0.9836336733699707,0.15321642368330596,38,32,70,73,2
0.007238643316665273,0.0010600018342514523,1.0015389519083477,0.15362876957388022,32,34,68,78,2
0.007501436627073496,0.0010994310694999723,1.0457787451297054,0.14750474694331042,38,30,65,72,2
0.006991650329169072,0.001159625274369304,1.0012430520507913,0.14699428962138777,36,30,66,71,2
0.006561029225996991,0.0011465587231351507,0.908366851654033,0.14797294624332755,40,30,65,77,2
0.0060035811451087774,0.0011531480660998852,0.8547048538980481,0.14070267435067893,36,24,64,73,2
0.005702981142061996,0.0011314413327249658,0.8308384313995184,0.14171540174722935,38,30,69,75,2
0.0054102067049864415,0.0011719332082631743,0.8057133197593881,0.14357147507587256,34,30,67,73,2
0.004826418254181462,0.0010811998104694662,0.7000596151728562,0.13031667567444813,32,34,63,67,2
0.004786901213234978,0.0009936502360757043,0.7045741779976933,0.12859729271046785,26,34,69,64,2
0.004010547023829868,0.0009787060318722297,0.5699581680758192,0.1158220320437918,20,34,65,63,2
0.0037201055855964225,0.0008534923123954409,0.5448878315655926,0.10807526130118066,22,28,71,63,2
0.003945897641999069,0.0007976503592233516,0.5822695900207796,0.10691656277039939,30,32,69,71,2
0.003432812365355813,0.0007237994380151116,0.4827639015708342,0.10522832366160453,30,30,64,67,2
0.0037925612232667526,0.0007556483769798131,0.5069791791150629,0.11452837536234348,34,26,66,72,2
0.0036926424377450085,0.0008037928784385692,0.4756497572246418,0.1118710686210035,36,30,68,68,2
0.00356696408804568,0.0008359798731292977,0.4727259887844903,0.11118473157447739,36,32,67,71,2
0.003468885635323458,0.0008151352981232934,0.489445787241299,0.1111986129551741,34,32,69,75,2
0.0006886550743344556,0.004652892500070198,0.11963565576201388,0.789100981034299,38,40,70,72,3
0.0007443305592234636,0.005424847758177455,0.11992113271377784,0.8557642408432371,32,38,69,70,3
0.0007960601862691232,0.006057759388861757,0.1288437395290693,0.9847620676972273,34,42,66,70,3
0.0008348775502536173,0.006008359917929426,0.12840958233540942,1.0010883591870372,36,40,73,75,3
0.0008424442985746136,0.006251005207633601,0.12885120530772406,1.0159293531549782,34,42,73,71,3
0.0007234242385982158,0.006281560918533591,0.11856073662510497,0.987612783587114,34,36,76,68,3
0.0006705534301607655,0.005682062813746486,0.10294249428271698,0.9176281801163784,32,34,79,73,3
0.0005703685147553108,0.00583647481831038,0.09631087592068394,0.9003024622306793,42,30,80,70,3
0.00059829247895331,0.00593336984687494,0.10423614507443062,0.9486965294304759,38,34,76,75,3
0.000698928836882519,0.006711510699969092,0.1117301521630073,1.0475239008299082,26,36,73,69,3
0.0008504500646691177,0.006784463621041545,0.12799170043261396,1.091539932355268,32,38,68,70,3
0.0009237691162183477,0.0068227943693520065,0.13147643418124982,1.1094261549883715,32,36,65,67,3
0.0008244987827854285,0.007111039814164019,0.1230905886787782,1.1290456795283763,30,40,73,73,3
0.0007545935636750982,0.006410369072735328,0.1170109697220947,1.0319966132497331,28,38,79,71,3
0.0007432946769063567,0.006601115806671035,0.11807885006107607,1.036387678567777,32,38,80,73,3
0.0007444705947625343,0.0063545041248631055,0.12694435795793982,1.0464341415332659,34,34,83,77,3
0.0007898084505504069,0.006423046346206679,0.1378743556561963,1.0599460158698426,40,32,76,75,3
0.0007697963386778493,0.0067766290702730705,0.13172178543079838,1.0974140909397216,44,32,70,79,3
0.000695042248090816,0.0065819205006368165,0.11933871220522094,1.0091264568713796,46,38,76,78,3
0.0006881259922804875,0.006312156927277051,0.12028550571361844,1.0158373758282873,40,40,81,75,3
0.0006958475724094164,0.005906134787066367,0.12122986278050685,0.9563883038826531,40,38,82,77,3
0.0007314542633864193,0.00644411719630668,0.1259092909006958,0.9561291642321782,36,32,80,70,3
0.0007980136375127878,0.006314954847695774,0.1310599603234094,1.0078475934291473,42,32,74,70,3
0.0007459074296410858,0.006352949341547724,0.12263011213359035,1.0129939750394414,40,34,74,74,3
0.00010101592357834768,0.00017102056852575704,0.010785241789576247,0.017523896974634693,16,20,77,63,4
7.900177360378196e-05,0.00018769993333593463,0.009469572510666172,0.018648237477764437,24,28,76,61,4
7.680084947339714e-05,0.00019749667523859355,0.009496176051279774,0.018561805537692266,26,26,74,65,4
7.309729753078572e-05,0.0001980971792669288,0.009124980908500196,0.019167111694191736,32,31,69,67,4
6.121638799314725e-05,0.00017863217173856846,0.008018457883460353,0.019465789511164112,30,28,78,68,4
5.41788489090373e-05,0.00017370912717682644,0.007420011761280474,0.017555096951666682,36,26,79,70,4
5.897054232290411e-05,0.00018181130933771856,0.0072632858925508696,0.018457025043787857,34,26,76,63,4
6.527718998716431e-05,0.00016676817394682163,0.007604529262646756,0.01755921908602706,26,22,81,63,4
7.400092284690723e-05,0.0001611543566697366,0.009129034524959145,0.016338835579630763,28,24,74,62,4
6.85287218668912e-05,0.00016267748266951096,0.008760973373338997,0.017760675514631195,26,26,72,57,4
0.0003489424671723491,0.0008424013870886632,0.02615647879817884,0.05425949211851589,4,3,75,61,4
0.00046173182092864256,0.0009728560253621521,0.03887450950805356,0.07113317073160941,12,8,64,53,4
0.0008329617390430579,0.0013137464134596818,0.05582401766311504,0.08562626364375989,6,8,74,70,4
0.0008472139995930184,0.0013696304331994114,0.05570449738717715,0.08993139864977041,6,10,61,55,4
0.0006117591353922046,0.000814342715503469,0.0366713017243849,0.056114413072986806,4,10,60,50,4
3.8435970749400806e-05,0.00035607544812084487,0.005337073948250455,0.029211959705819048,24,18,87,50,4
2.9940018625065928e-05,0.00036184348061783723,0.004803400082565207,0.02881974812499905,32,16,95,55,4
2.946227590037676e-05,0.0003265186899079875,0.004403311773653582,0.026415490494790216,36,18,90,58,4
2.477772259972188e-05,0.00031483063000231024,0.003711490985738492,0.02447026082878461,36,14,98,60,4
2.4900371145144317e-05,0.0002809632193328513,0.003779037434624251,0.025093133718654265,34,18,93,65,4
2.534585701641677e-05,0.00026398950587379366,0.0037653769700568534,0.023789159046806525,34,16,87,64,4
2.5654760845548675e-05,0.0001995457438951181,0.003891643805991608,0.01945448805367619,28,24,93,67,4
2.764927994340884e-05,0.00024834007136699646,0.0042046420487883256,0.02182971936004793,36,24,85,61,4
3.0853820448433026e-05,0.00018921995744365885,0.00454760173357791,0.017525020208678237,32,24,84,63,4
