f1ch1,f1ch2,f2ch1,f2ch2,f3ch1,f3ch2,f4ch1,f4ch2,Category
0.0007758247531918097,0.0033234266835346603,0.10731204710416993,0.2612364732031594,26,20,65,46,0
0.0007448493736108081,0.003304110406571274,0.10137910101250637,0.24740059079896182,28,18,72,53,0
0.0006505620835409867,0.0022255021934876017,0.08777473640623455,0.20676555346116465,34,22,72,61,0
0.0005250663645835288,0.002087975613579593,0.07718026507445645,0.19797976277932453,28,20,80,60,0
0.0005458369346015408,0.001431648885788097,0.08213499149569045,0.16665331811962908,30,26,77,64,0
0.0005948966506276757,0.0013546661416507305,0.08851751509049631,0.16958301078590704,24,22,77,64,0
0.0005800454031436332,0.0016606789992650078,0.08996608578612933,0.17721892964853284,28,22,80,65,0
0.0006074517875724124,0.0015876057925682246,0.09155873885718693,0.1664737931639567,32,20,73,62,0
0.0005771778491122934,0.0019535422881761418,0.09340269542415468,0.1847312936246328,36,22,76,53,0
0.0005363780728294555,0.0020820982940764413,0.08159442770150416,0.18714626274738716,38,16,75,54,0
0.0005114646234392848,0.0015796576415482708,0.07737540914698413,0.1579341371998218,38,20,79,60,0
0.0005177023506485346,0.0018147234994031925,0.07606093254895055,0.17299607793110194,38,20,80,55,0
0.0004928974456668103,0.001576310565300754,0.07194346314086365,0.1558610834633726,30,24,79,58,0
0.00045443444274236613,0.0015007848366148766,0.07410670147054482,0.1494559106137687,38,24,79,66,0
0.00044177762181303116,0.0015435400718034043,0.07709267526913893,0.15753155060155707,44,26,81,64,0
0.00047887691840377907,0.0015251540169423884,0.07632868508018141,0.1509742932760779,32,22,81,65,0
0.000435809502289608,0.0012797177653575125,0.07617956396396931,0.14271437746383903,36,24,80,73,0
0.00045243129652133314,0.0012040293335150326,0.07391677875815177,0.13221345902486156,36,20,69,69,0
0.00047378264262786326,0.0013452484785738165,0.0718762509305803,0.13988008295965682,32,22,70,64,0
0.0004750112017981363,0.0013816859658479193,0.07094878351109239,0.14360334511920358,30,22,81,65,0
0.0005551943156468344,0.0016425090380206234,0.07532190811731751,0.15195252348658012,26,20,80,55,0
0.0005008189449012671,0.001812840294739838,0.07177280267900599,0.1682921398360234,30,22,86,48,0
0.0004956009858564632,0.0016959431518128651,0.07540789310446816,0.1608836149567339,34,24,86,50,0
0.0004672284812943765,0.0017924808238944322,0.07567096096665474,0.15721385539073707,36,20,83,52,0
0.00039202329410617867,0.0018504278368977332,0.06687798698804692,0.16459874974814984,40,22,87,51,0
0.0004019648282683734,0.0018019905708426386,0.07065220780865504,0.16097451512557154,38,26,91,63,0
0.0004071221737500645,0.0020879676751072223,0.06665247059593532,0.17337084149740942,34,18,83,62,0
0.00039992544950311526,0.0020592155005817684,0.06638863907459273,0.1722464907164424,32,18,89,60,0
0.00046695863140730606,0.00196024961174027,0.07490499369734123,0.16908698760979018,32,18,74,58,0
0.0004518259959999027,0.0018248749176729487,0.0730127761593412,0.16406334030429534,36,14,73,59,0
0.0004565952444246255,0.0013792608465589282,0.0740176042910708,0.14789474054258772,40,24,72,60,0
0.0004487819401075736,0.0014646891141119078,0.07641639073316898,0.1545534018856497,40,26,74,64,0
0.0004371801055715826,0.001428992460311436,0.07130023509170264,0.1401732317159587,40,24,80,64,0
0.00041382721576280494,0.0012823372133705586,0.06752486367885166,0.13347052827942826,34,24,88,65,0
0.0003987841224564398,0.001274003144876177,0.06632436656337308,0.13305804406225097,38,26,90,64,0
0.0003710468924684031,0.0010610490979677015,0.05890875126360427,0.12028882998037486,30,24,91,68,0
0.0003988343285753905,0.0011280355554006665,0.060351487752246656,0.12258712773347229,32,22,85,68,0
0.0004455467665095289,0.0012290501127837617,0.06596153867504878,0.12871654148460648,38,16,79,71,0
0.0004654587368459413,0.0013484838649610723,0.06750221722643954,0.13154535488923608,32,18,76,63,0
0.0006206218262569482,0.0017469214226049983,0.08522198144189141,0.17914302042406804,36,20,72,62,0
0.0006232863744472404,0.0018934799871860742,0.08711332574335189,0.19307514022869296,34,22,69,54,0
0.0006355885294550297,0.00240011855455905,0.08761964468637795,0.21251264512515305,34,20,70,58,0
0.000684819902682715,0.0024469363072474075,0.08977517234533806,0.21768161971680364,34,18,66,56,0
0.0006199478394751387,0.0021644002762421545,0.08567252785519464,0.19619148800940825,36,18,65,53,0
0.0006364846667149741,0.0022169900370219435,0.09036228842453435,0.193232568498239,32,20,59,57,0
0.0006056317870437894,0.002148713506250244,0.08715158397846076,0.1735588668145975,34,16,69,57,0
0.0005668634062525566,0.0019429739397839201,0.08479998337179354,0.1671456724917243,32,24,70,60,0
0.0005532646984460396,0.0018367317466537758,0.08228270235336367,0.17172840109996992,30,18,75,62,0
0.000806209936009996,0.0006543192804961535,0.07909338350459093,0.05549419346265116,14,12,60,58,1
0.001429485774127428,0.0012289315352117264,0.1416705506132813,0.10409587686270207,18,18,61,52,1
0.0019718987167596028,0.0015253495181880303,0.2141142404095167,0.14088332137393123,26,20,60,61,1
0.0021795347855459645,0.002004108125381884,0.2612783303985767,0.1795591444538929,32,24,64,53,1
0.0021641476082520724,0.0021697482724389434,0.27035133239698095,0.2032905729471989,30,18,62,65,1
0.001955221703140452,0.0016851865411324413,0.23811605088250656,0.1777219900064465,26,22,65,61,1
0.0014424020177621604,0.0017569127234557103,0.19359096993299318,0.18163652372720718,32,18,68,60,1
0.001144217804853546,0.001646199294780026,0.1598096204343303,0.16958231333412246,34,22,70,56,1
0.0010155984727000082,0.0017980824345047203,0.1450811431669722,0.17138680720917787,32,26,79,52,1
0.0009774427785099154,0.0020133568515279597,0.1460245880943562,0.18100292311402136,38,28,77,50,1
0.0011062151038042898,0.002181306757875533,0.15013269880068797,0.19890484907432265,34,16,79,49,1
0.0010941093962996728,0.0021074920566387005,0.1607333429578948,0.20563569728097297,34,20,77,49,1
0.0010393120433443666,0.002048535553434315,0.1553399971069963,0.1886647640561152,38,18,80,47,1
0.0010029830814803633,0.0017954418450044965,0.14904420959098919,0.1793556676646456,42,18,86,50,1
0.0009666773199763928,0.0014810697560202074,0.1453749340786852,0.14826316721877764,40,24,85,48,1
0.0008504962361556271,0.0012835267412285906,0.1326142281258809,0.13029646695218491,38,24,84,53,1
0.0007699715924318472,0.0011167346033956896,0.12158976349736744,0.11457879410926114,34,18,73,54,1
0.0008175509287468064,0.0012334661816964052,0.12242000895711394,0.11136196693838618,24,18,77,60,1
0.0007043800505856916,0.0010206366752079227,0.1088664358744168,0.09934361504239504,22,14,79,61,1
0.0007481470996759346,0.0009582039447106388,0.1006389190570422,0.10363130035106471,24,22,82,61,1
0.0006429022344882113,0.0009327970090974091,0.10411358079594848,0.1052999263171548,28,26,89,68,1
0.0005930308580187965,0.0008378541259778684,0.09347405629577554,0.09607570227626187,30,26,84,64,1
0.0005789553692186151,0.0009382942276839398,0.09071768787783373,0.10656093251482271,28,34,75,68,1
0.0006338039839386367,0.0007916186604127877,0.0886877416009645,0.09374114099500107,26,28,72,65,1
0.0005558844752326048,0.0008638637271570866,0.09258947173256937,0.10199572113323262,34,24,71,68,1
0.0005587404386526376,0.000852100311080069,0.09235880920970237,0.1056141254088626,40,28,73,70,1
0.0005879636133309357,0.0008126681599718091,0.09539935773046336,0.10554828203004245,36,18,71,75,1
0.0006215802203854402,0.000943475777798035,0.09780908424707536,0.1111144261006377,30,20,70,70,1
0.0006186311131571212,0.0009242245330014146,0.09545413382282648,0.11272096332783443,32,24,73,68,1
0.000654979094768965,0.0009769204749945511,0.10720261414508622,0.11993454198065874,38,22,75,64,1
0.0006672636374939245,0.0010296468895825924,0.11013113348062832,0.12815287777395745,36,26,79,59,1
0.0007573728073843913,0.0010870831674625432,0.1155240951550662,0.1369148060696906,32,30,77,55,1
0.0007779499901331053,0.0012384753244901504,0.11910625401769363,0.14501334052463938,30,28,79,56,1
0.0007502221996273864,0.0012712859646803604,0.1114796421223528,0.1489388948133682,30,22,85,57,1
0.000711702770018028,0.0011177118272077476,0.10890413643629543,0.1349591710067933,30,28,77,59,1
0.0006953399810719922,0.001253514692481351,0.11348092706387453,0.12315622693192071,36,20,78,55,1
0.0006880431286412608,0.0009803652498498806,0.11031342958521213,0.10642944140220062,30,20,80,69,1
0.0007163012451530945,0.0013397680552294509,0.11649429132894966,0.12950900751299932,34,14,78,59,1
0.0007069131652057805,0.0012311122814627669,0.11370038050571228,0.12503486360172963,42,14,86,56,1
0.0007620702468057505,0.0013664078652203767,0.1147821696168775,0.13381624380237925,34,14,83,56,1
0.0010139060563017603,0.0014691003751573862,0.1415777859457632,0.14078211077392505,28,16,75,52,1
0.0013939072007822615,0.0013294310641674717,0.17428770163215085,0.13016463369985687,26,20,63,56,1
0.0013725055435301122,0.001381174751856996,0.17523621087437763,0.1391727773258376,28,22,64,53,1
0.001463999399920644,0.001362804252748806,0.1728176465588775,0.13425471778745193,28,18,66,55,1
0.0012174911307398226,0.0014470186136514094,0.1543300256833098,0.14475081498472955,26,16,72,52,1
0.0010146862418372027,0.0015933230734642347,0.12917794573791638,0.16313403177250893,28,20,70,51,1
0.001222504793274916,0.0018050994088130664,0.15554351942804331,0.16643967616747138,30,18,69,51,1
0.0011637404307452259,0.0018428164902134685,0.1538573039608636,0.183038677696074,24,20,68,54,1
0.001186478809519138,0.0004737461625715335,0.15430788608919466,0.061583333464923194,18,26,71,74,2
0.002362923834973117,0.0005231537547894825,0.25770230054409476,0.07707843642016227,24,24,66,75,2
0.003776210400778716,0.0005807455074168537,0.40190933435688775,0.09534077278723548,18,38,68,81,2
0.004740908583832434,0.0006480144065701732,0.5826644038015486,0.11965196707111576,30,48,68,83,2
0.005014359040287622,0.0006556314507393267,0.6761064902403959,0.11908489711668621,36,46,74,85,2
0.004995684577484962,0.0006357695641556352,0.7302948915761399,0.11904464518815183,36,44,78,88,2
0.004216387010920954,0.0006247077705414731,0.7312339163232722,0.12241303277462653,44,44,80,86,2
0.004118412715970475,0.0005805242371455662,0.6994215558036108,0.10743760766936507,40,44,79,93,2
0.0039747509860324085,0.0005484585650367221,0.6743482326906063,0.10714722980796358,40,48,77,94,2
0.004000637418354508,0.0005644772993851102,0.6757215727082971,0.10541964243848144,34,42,78,92,2
0.004142730000646431,0.0005480993277395796,0.6707967702107758,0.1087316529547753,34,50,74,93,2
0.003991305655952915,0.0005399367209775749,0.6713761086618742,0.11165477810271256,32,46,73,88,2
0.0038098453195920578,0.0005190802220355253,0.6231086730361537,0.10655545152452821,30,52,73,84,2
0.00373816819754712,0.000541063531434514,0.5915306024370157,0.10800305221706011,28,48,74,80,2
0.003390773345654992,0.0004943084460732083,0.5559592152370539,0.09841691653704308,34,46,78,82,2
0.003136439452037855,0.00050244316878469,0.5305985231423672,0.09830695770565226,30,48,79,82,2
0.003157733686964299,0.00046984130682969157,0.5311148067479863,0.0939693299792864,38,48,77,85,2
0.003269890601008637,0.00044717968530267124,0.5686807652347424,0.09481757074159682,32,54,80,94,2
0.0033246371426505637,0.00048744315847821704,0.5861274161283698,0.09692531925852456,30,46,85,97,2
0.0033694756159955664,0.0004603897341193477,0.597187021509449,0.09574085350284177,34,44,82,96,2
0.0032365118673840475,0.0005175377227282533,0.6057345266956478,0.09749125215159846,32,46,84,92,2
0.0035473941648250227,0.0005095383385481357,0.6247819621204634,0.09791598273445702,30,46,80,96,2
0.003637672856854812,0.0005085315302904865,0.6166857479131957,0.10472777666695583,26,46,79,95,2
0.0035128304709578797,0.0005484629985636739,0.5883338488379628,0.10099300370672988,30,38,81,95,2
0.0034851077156948245,0.0005176618679816144,0.5796541223590849,0.10468202194843448,32,38,85,97,2
0.003577895998011058,0.0005263718234051871,0.5382531855639177,0.11003828074386605,36,40,78,96,2
0.0032571031097650195,0.0004965919784624807,0.5188943416070004,0.1017769133514613,36,46,79,103,2
0.002965587885876784,0.0004977119612212506,0.4921235480414486,0.10414169072155202,28,46,76,104,2
0.0029924425678592094,0.0005069741217509077,0.5252974507043228,0.10601084485085474,34,50,75,100,2
0.0030496271862974827,0.0004901869069284629,0.4636883446599669,0.09231880402077729,28,42,73,99,2
0.002752509375148997,0.0004783023292145069,0.47767540581935775,0.0938200505677758,36,46,80,93,2
0.0024313448318087245,0.0004300859340634612,0.46215775741318993,0.0895020145544161,44,44,81,96,2
0.0023884437745878093,0.0004011316544883955,0.43475625508106036,0.08859211315196269,42,54,84,99,2
0.0023507505831689827,0.0003701744967725809,0.4429578701415857,0.08431162004489724,42,46,90,102,2
0.002247381820321101,0.0003992343670384165,0.4068551327626028,0.08186988157917681,38,46,82,97,2
0.0022802632998946155,0.0003745049828639006,0.4155381600211042,0.07834809204634234,40,42,81,95,2
0.0024359592906089468,0.00038577180108667397,0.4194169949320651,0.07459057573024866,40,42,74,87,2
0.002449668119567205,0.00043618944868135826,0.435455520757288,0.08530693422028499,44,48,72,97,2
0.0026657178144797213,0.0004481367527041471,0.4669719165773165,0.08899741417692086,44,50,69,93,2
0.0023000956706804745,0.0004400748771540646,0.3888142448676861,0.08228321808314193,38,44,76,83,2
0.0020225572491659564,0.0003905875046716562,0.3269857904795597,0.07127192988732102,30,44,78,78,2
0.0017549654149004417,0.00034867883266144045,0.24458037131077184,0.054223697811899,28,36,77,71,2
0.0016277476542320842,0.0002572168775491565,0.20149578561413126,0.04744339403143169,20,40,83,80,2
0.0023370563471029064,0.00030870117029489595,0.3130393915293426,0.06136444317652219,26,48,80,85,2
0.002760537110225803,0.0003645053862690347,0.4176620452692802,0.07170835891840649,28,50,85,89,2
0.0034004863143342395,0.00045031371687653457,0.5370470363548048,0.09305955893823085,34,50,81,93,2
0.004080403205731862,0.0005568184761632048,0.6771214297865514,0.11321420805202013,38,46,76,88,2
0.004236299040398447,0.0005787742260723158,0.717861087606629,0.12253833619295586,42,50,73,91,2
0.0004470186016507064,0.0015563393739501416,0.05450777759574212,0.14923862697310042,20,14,60,54,3
0.0005807442716607272,0.0023363894308038617,0.07596085726027346,0.2612615977098236,28,18,55,55,3
0.0008149735916135213,0.0035493002302176505,0.10259848222568438,0.38855623470410905,28,22,63,58,3
0.0009396404914343886,0.0038857388407320475,0.12057458680844407,0.47961336457056875,26,26,61,54,3
0.000985375303924219,0.0044800633034683054,0.13319223507764535,0.5450808784037611,32,32,65,58,3
0.001081827499327353,0.004367241332342722,0.14069860659718939,0.535427140705703,36,32,66,60,3
0.0011201770842673958,0.004392682652353019,0.14059764757665302,0.5215509384168139,34,24,61,61,3
0.0011102336481539133,0.00460793025461405,0.1403828867623303,0.5585226590689196,32,26,63,66,3
0.0009865727263967498,0.004052370607303019,0.14187277558348688,0.5394308457130897,38,32,64,64,3
0.000914256404336943,0.00400907542287194,0.13553136608307992,0.5307798365752617,36,30,67,70,3
0.0009267109829212584,0.0036008185653511765,0.13898650885264474,0.5329823157109166,38,30,68,73,3
0.001155834236304946,0.003965240153951467,0.14828366389197783,0.5213758386128851,24,38,59,70,3
0.001106307149929109,0.0040724900771031075,0.14182470085858487,0.5417270228786534,22,32,58,62,3
0.0010616628385185585,0.00395170005669403,0.12804804198849037,0.5393748070655848,26,24,63,64,3
0.0010554081454688107,0.0038874760532294932,0.13096338460831156,0.5050491961035398,26,28,68,58,3
0.0009574965589269064,0.00354670368099,0.11364285004551895,0.43929433378395,22,28,66,59,3
0.0008996742323313747,0.0032095772670347332,0.11403198382016465,0.3795237341861362,24,28,70,63,3
0.000976922914806248,0.0030015003133927087,0.12372939145966953,0.344752620847066,24,30,66,65,3
0.0008582395376816282,0.002860378005935776,0.12284509604525783,0.37097439753984224,32,30,63,67,3
0.0009220065048755204,0.003112905075810366,0.13543332706090935,0.39589537489342236,34,26,63,64,3
0.000928973591381035,0.0029687557573121704,0.13920662314206672,0.40693848582266373,36,30,63,70,3
0.0009797598810235807,0.0031564592047218583,0.13992663022876584,0.420642153141719,32,26,63,70,3
0.0009263571169497621,0.0028362105857152953,0.1365673864251669,0.3895676444845886,32,32,65,75,3
0.0007993435070466089,0.0025441190054881994,0.11811479069296842,0.3428292178604181,28,26,72,75,3
0.0007449194903472293,0.0024650510917320094,0.10692312796371198,0.32785502711019976,28,24,77,69,3
0.0008236894447318176,0.0024619223197437827,0.10636263758825645,0.3319033439579672,24,26,77,67,3
0.000800524865638746,0.0024580373400169488,0.10694935925632777,0.33056692667964926,24,28,76,70,3
0.0008274806689562435,0.0026690876526861886,0.11260080448743678,0.362912932864754,24,30,73,69,3
0.0008728847677269569,0.0028073744756058057,0.12149590673771897,0.40240292217643125,28,24,70,72,3
0.0008562471126741279,0.002783251654516146,0.11429461126267333,0.3786777257528176,28,28,65,66,3
0.0008268857555978965,0.0029033880539980532,0.10974211899187046,0.3914644635749713,32,26,67,76,3
0.0008642969548072585,0.003025012850614408,0.12173939510752171,0.40421568169062017,30,32,70,69,3
0.0008493647485930975,0.002821387339498692,0.11703251489717448,0.3750523353960353,30,40,69,72,3
0.0009380271912900337,0.0031234116134362788,0.13547240136531935,0.39960048258404623,28,30,72,69,3
0.0010528381205704724,0.003261558417796814,0.14848084860643276,0.4197279753386407,32,22,65,71,3
0.0010743138178502323,0.003850437564891891,0.15066506426785203,0.46838146502192307,30,22,70,68,3
0.0010279808526223349,0.0036138279186969584,0.14258539288288433,0.45199917359311653,34,24,74,70,3
0.0009724457663481573,0.0032768612493665524,0.13224238627713067,0.4410600241492315,32,28,78,65,3
0.0008994235960327696,0.003382072080867426,0.11651992924944579,0.41051721192016855,28,22,73,58,3
0.0009101428943179209,0.002795509973935386,0.11001892916314528,0.3146895323704279,28,22,69,61,3
0.0009521837635829949,0.003327107377741738,0.11157088080468988,0.3363896313495851,26,16,72,61,3
0.0008873073936369164,0.0031639840734509926,0.11441353705068681,0.36339262004430356,30,26,69,67,3
0.0009554092994577651,0.0034249781633050196,0.12044141663678619,0.4045702683327071,24,30,69,64,3
0.0010535038021384049,0.004044573089520723,0.13552209935764511,0.5194208877838534,24,30,71,68,3
0.0010764238254590847,0.004301371094768653,0.14785883460531113,0.5630860649264761,34,34,63,64,3
0.001059822967142638,0.004187331166104437,0.14574161306630903,0.5770456255383862,32,38,61,63,3
0.0009261775438284745,0.0034611812993626035,0.1254708673961892,0.4993273921640641,26,32,66,66,3
0.001086369902370849,0.0034947533173407047,0.12384853948183146,0.4371530999158465,24,28,61,62,3
0.00012569962263152523,9.954944585461818e-05,0.022236169308653308,0.015311049976078179,48,34,61,76,4
0.00012788525297689635,9.893943132204853e-05,0.0224205117913901,0.014059182527285406,42,30,61,73,4
0.0001250644679315163,9.135815367446358e-05,0.022014473616434594,0.014066767413114781,40,32,63,78,4
0.00012689450727214932,7.74411545725943e-05,0.022147968062635408,0.01273823929233678,42,35,61,94,4
0.00012850935788987817,6.871767806110101e-05,0.02220131624985883,0.011031612503729376,44,36,61,92,4
0.00012870645625176095,6.982099130205072e-05,0.02241845351445134,0.01173655006268903,46,39,62,86,4
0.00012947600247059405,6.47995424823027e-05,0.02247112954594257,0.011271180389879017,46,42,60,87,4
0.00013094666293302258,6.8387184585995e-05,0.02284852610664358,0.012175792969817918,48,40,60,89,4
0.00013379267844098819,7.910225283194119e-05,0.023596279581690017,0.013313423468273983,46,40,60,92,4
0.0001302236299663699,7.46755377768241e-05,0.02308064729396034,0.013058456006919952,50,30,62,84,4
0.00013026762610326425,6.609391355401631e-05,0.02295693789371573,0.011638532725058028,44,26,62,87,4
0.0001311996187222388,7.712650983351504e-05,0.02269851911661089,0.013634825168003104,50,27,61,82,4
0.0001269520106842318,6.828969443502647e-05,0.02209530143124473,0.012458287771793426,48,30,59,83,4
0.00013081952020268877,7.355882854505845e-05,0.022452938032946967,0.012914537780174712,52,35,59,85,4
0.0001327720363238246,8.386744805860224e-05,0.023182785036802434,0.013800658877804677,46,32,59,81,4
0.00013772311271713006,6.922254120112036e-05,0.023741041178242706,0.011456120134666474,50,35,59,79,4
0.000134724204174486,6.878262780384752e-05,0.023764841823172924,0.010396946692526261,46,32,59,88,4
0.00013459342622522064,6.364987680936184e-05,0.02386514451474175,0.01049126187063708,56,42,61,88,4
0.00013323778573447233,6.15234630083975e-05,0.02351322429084675,0.009426864996889862,48,30,61,81,4
0.0001266949701280958,6.510429981500991e-05,0.022750496130746263,0.010252349870936492,46,34,63,82,4
0.00013050360191552528,6.752837697016467e-05,0.023634161980806603,0.011493896382529404,40,28,65,83,4
0.00013466206713958807,7.031833435772262e-05,0.023815680667821307,0.010154412532917788,50,26,63,81,4
0.0001363593130772599,6.539702354602655e-05,0.02434684471383701,0.011870110507517118,46,34,65,86,4
0.00014203373957764607,7.18146622001419e-05,0.025454487624765196,0.012341408506053966,54,34,61,86,4
0.00013306095349002451,7.089515427962798e-05,0.024081616328354014,0.012486587161308666,46,38,63,80,4
0.00013176210099694,6.954144438898122e-05,0.023816435486574764,0.012467659168185888,50,40,63,88,4
0.00013772670219093774,6.995381454691398e-05,0.023628154378505403,0.010603914631371837,42,26,63,93,4
0.00021283965178975527,0.0001670314543747927,0.02481787506299951,0.014778924531835009,24,16,60,73,4
0.0003253022848823772,0.00016964608899180754,0.02953476378413052,0.014878845170791315,12,14,58,76,4
0.00033120921125223815,0.00017348738880441648,0.029216259993692362,0.01511425774910031,12,12,59,71,4
0.00023667919767923092,8.044235227649588e-05,0.025765992735706792,0.010828303301632739,18,30,62,89,4
0.00023702892983227104,7.575006265267822e-05,0.026619326066293456,0.011909212403895164,19,40,61,91,4
0.0001213092881356373,5.7225508094388545e-05,0.02191373239179953,0.010353588670830279,44,44,59,85,4
0.00011972281984780368,6.231801942255517e-05,0.021416473731212738,0.01074493136092303,42,38,59,85,4
0.00011951603670794689,8.719235881081659e-05,0.020891081793897877,0.012844651099003375,42,24,61,83,4
0.00011765270589319872,8.05457809951414e-05,0.020535659658175668,0.012913979277583339,42,30,63,88,4
0.00012288805786405294,9.131688600588573e-05,0.02149775184235089,0.014242900771162718,44,30,63,91,4
0.00012586795441142282,0.00013381840597995084,0.02193435456469859,0.017813270374816302,46,20,63,89,4
0.00012773170026574682,0.00012094398800018356,0.022482149653750453,0.01702118369133101,46,30,61,87,4
0.00012799546326935845,0.00011345272896204421,0.022577257425708885,0.01536148801082555,48,26,59,83,4
0.00012674415527451444,0.00013021837932764195,0.022551117143396134,0.017102380720508768,46,26,59,79,4
0.00012932375821327996,8.90880922933956e-05,0.023231181490736386,0.014350865509503399,48,32,59,81,4
0.00013734208368331967,8.806541246037334e-05,0.024463709318628003,0.01492655512070993,48,32,59,77,4
0.0001346797282999367,0.00011405186371614595,0.023764944843839165,0.016842199514020436,50,36,59,75,4
0.00013386898372159167,0.00010554848953019852,0.023089431827882083,0.016164960643912187,44,36,61,81,4
0.0001289107079385441,0.00011680945216696868,0.022294252453659506,0.016319988560327715,44,38,61,76,4
0.00011885644557939378,0.00010589057519367065,0.0210187572690041,0.015335174397482722,46,38,64,78,4
0.00011848482745019444,0.00010590519565157981,0.021510332104996338,0.01585197425443318,44,32,65,80,4
0.0004304773561367038,0.001326826214653442,0.06529592230970337,0.12736807488457788,36,20,81,68,0
0.0004241688539541938,0.0013274191229114233,0.0632483456376599,0.13276955312558558,40,22,80,66,0
0.0003986801598702024,0.0012177669531203586,0.06333290454084316,0.11853549074156419,36,22,77,67,0
0.00038977589099143284,0.0012896547859888503,0.062269003830601286,0.11739427848555983,38,22,79,65,0
0.0003754028047055905,0.0011445153543260622,0.06282523108433077,0.11688974137242303,42,22,77,70,0
0.00038567858682500046,0.0013059105670387744,0.06365610531932635,0.1354181473945896,42,22,75,70,0
0.0004048278141179769,0.0012993717210119955,0.06300233424867807,0.13608594914242433,38,28,76,63,0
0.0004008748834767947,0.0011984965470927403,0.06591768374733951,0.13593434738039295,38,26,77,63,0
0.000405607778718984,0.0014704493839426819,0.06553593201823668,0.14180252641530738,32,20,81,63,0
0.0005373277076183011,0.0015493899420507317,0.0715186948560952,0.160520225670838,28,22,80,66,0
0.0005902354476639433,0.0015872459534673818,0.07900660508507884,0.16944229262914393,34,20,84,60,0
0.0006669487315855829,0.002331339744985968,0.07875059241523988,0.21892273652145355,26,22,78,52,0
0.0006672119478745603,0.0023475725114920696,0.08038277331474457,0.21567838289434946,30,18,78,60,0
0.00067581608810909,0.0027493505439435354,0.08334881017481512,0.24721297567953268,32,20,77,59,0
0.0006250223285618576,0.002788069190095562,0.0806419197402301,0.24927671616414868,26,18,79,64,0
0.0005304958835104798,0.0018457875497875109,0.08344365630477446,0.22377818018921947,34,28,93,79,0
0.0005520009029093933,0.0017742213232787274,0.08967215471245808,0.21160006894636685,34,30,87,77,0
0.0005283283770052059,0.0015941108944409305,0.08996365956386417,0.18587270484910554,30,26,89,71,0
0.000559599036199512,0.00146954014399994,0.09550508121474102,0.17939987735625731,34,28,84,64,0
0.0005552568502769781,0.0014156986657012042,0.09023843436940877,0.16094650597230636,40,26,76,60,0
0.0005495686609204963,0.0013192316864410567,0.08591949706423245,0.1547162777670485,30,28,76,59,0
0.0005124095751757845,0.0012340363931302555,0.08177994909476936,0.1467984250996883,34,28,77,61,0
0.0004807930838743198,0.0015814984315282246,0.07163605708663633,0.15500808243121078,24,20,81,68,0
0.0005073721873130734,0.0015168824618667883,0.07143526231810436,0.15580051288274388,24,20,81,70,0
0.0004910242223591606,0.0016461000292919792,0.07296413090329977,0.16473862408085488,34,16,81,65,0
0.0004995315564117581,0.0017133013874643629,0.06547939492741321,0.1684120649644977,32,20,80,72,0
0.00043915464139211415,0.0015794530385688848,0.06521390090130955,0.17854826711199087,38,18,78,61,0
0.0004918869919106753,0.0017100603214189195,0.06911432669243318,0.19396203966791523,28,22,71,56,0
0.0004799158672024357,0.0018443745386204518,0.06987604824933463,0.19727701394285074,36,20,72,51,0
0.0005153515215946908,0.001996309538166027,0.0780350292573084,0.20490423836851368,36,24,74,50,0
0.0005356781587564621,0.001984136806829859,0.07775383158677288,0.19753559626684364,38,26,78,54,0
0.0005204623612087519,0.0017499904886197912,0.07834414708614165,0.17144075098077216,32,22,75,66,0
0.0004747873440075775,0.0017092715438643891,0.0753837420571132,0.17162273462080818,38,18,75,64,0
0.0004379870153534854,0.0014449145205299692,0.06897738070420084,0.14542817768369493,38,16,75,70,0
0.00043586652376489986,0.0010548339355645774,0.06516467850149667,0.12599253546367176,34,26,70,65,0
0.00039112143269075126,0.001260704669495395,0.06108882232282514,0.13754080831851678,36,28,80,63,0
0.00035471301090939577,0.0009633878083447905,0.05840060510299903,0.11635437697809559,32,26,86,66,0
0.00041030560902487407,0.0012226761415654673,0.06466377380080371,0.14255029740073527,28,30,81,66,0
0.0004127258514161603,0.0013575975062221,0.071317605312357,0.1608485516922985,42,30,83,69,0
0.00047095145129317763,0.0016269848113851684,0.07104679552627623,0.18313137912134356,32,20,87,67,0
0.00048809540067792283,0.001662276537837418,0.07025887939156768,0.19039560248410645,24,26,87,61,0
0.00048277744647072957,0.0015515695262401524,0.06577082147613773,0.18557328390563213,36,30,92,62,0
0.00047021047262191945,0.0016437050688389962,0.06632703132707511,0.18346938002972926,24,26,90,55,0
0.00044120022219470935,0.0014080479674859184,0.07057468857168984,0.1595769684105322,30,26,89,59,0
0.0004591874174621983,0.001571807411182788,0.07235123302751736,0.16331194379054004,30,16,87,58,0
0.000510766861672227,0.0016453981636423887,0.08060317960743459,0.1668007002800131,42,22,77,52,0
0.0005134411059728537,0.0015601058052336456,0.07981458410166105,0.16175197886445652,40,18,68,56,0
0.0006314538256856438,0.0017287782729157738,0.08176275619689899,0.17008156916310263,30,18,70,54,0
0.000640779371931724,0.0017626812952122426,0.08143839367297111,0.1723612510880973,32,22,71,54,0
0.0007404459439660749,0.0011304786479353845,0.11210204961045371,0.13321603322406933,32,20,81,65,1
0.0006987894334003193,0.0010931223667463468,0.10958465984173443,0.11556255273996673,32,16,87,64,1
0.0007253823798834497,0.0010734986027828393,0.12084393031775141,0.10909927137385113,38,12,83,75,1
0.0006830210880376303,0.0010585000710950532,0.11658726862306544,0.12004098730393292,34,20,87,72,1
0.0007383991345409688,0.001056006505589081,0.11402416533749456,0.1161658477926916,32,20,84,67,1
0.0006971257751024691,0.0010385045283622274,0.11479137443353643,0.12361275368210309,34,24,80,66,1
0.0007187671674952739,0.0008559822452779909,0.11848073981657177,0.11183293628415057,38,28,81,62,1
0.000820638549361844,0.0008616842670073334,0.1323791742120309,0.09862418431621453,40,26,76,67,1
0.0008502844993212566,0.0009441967080117166,0.1317597088884476,0.10756291354874542,36,26,75,66,1
0.000738032696753352,0.0007146884679624556,0.11288905116625364,0.09133514941196105,30,26,72,83,1
0.0005261282888270345,0.0005930384185670492,0.07649140197558574,0.07199208024936747,30,20,71,84,1
0.000394302753108053,0.0004220067525971337,0.04414152769695089,0.05258887884280309,14,16,69,80,1
0.00014264358049111443,0.00016547447204174435,0.02409898993574493,0.022287887585923743,36,26,61,82,1
0.00017177482208014647,0.00032734142539554673,0.027306881856627923,0.033307918441706136,40,20,65,73,1
0.0005774695173023496,0.000516396040398871,0.05719410699654608,0.048408591067242164,8,14,61,62,1
0.0009858242309984714,0.0008311674257618951,0.09385978914720901,0.07854739570416225,16,20,64,56,1
0.0014459743690500198,0.001286679349578816,0.1335975729683803,0.12398096434365882,20,20,69,60,1
0.0017044462466319884,0.001340598255226237,0.1642685090768062,0.13043161405258544,22,22,65,62,1
0.001638168786642109,0.0014036274694343529,0.16603619788434787,0.1452008025499119,24,18,68,70,1
0.0015160637960355255,0.0012755019833180046,0.16646547332174483,0.1400989602591478,26,22,71,68,1
0.0012393001229740355,0.0012939027016278218,0.15320863013040728,0.15046229758820132,26,12,80,69,1
0.0014772772967920893,0.001201502228461128,0.16966338481640728,0.15534924206365316,26,20,79,69,1
0.0013150746649331574,0.0013415092961724276,0.18263537522666592,0.1602267916424576,32,28,86,71,1
0.0013391470610891977,0.001372679818192791,0.1795729023180413,0.15671784842373968,38,24,83,73,1
0.001426452378757624,0.0010784411544687853,0.18597132458445334,0.12573928910972187,36,28,75,68,1
0.0012499719599998625,0.0011083054133300418,0.1689835919628641,0.13459796546150266,32,28,74,68,1
0.001164178627410292,0.0009673445797837425,0.1743668473978178,0.1185156237290231,30,22,71,62,1
0.0011792760659927778,0.001130920984091529,0.17470069081914544,0.14085197623552775,30,22,73,65,1
0.0011540224531095637,0.001136716684828871,0.16873289960156101,0.1332543355552725,30,20,84,67,1
0.0011663415812561925,0.0012778388920569675,0.17336170983470384,0.14674871721484137,38,20,82,62,1
0.0012108219267469656,0.0013329383152765161,0.15276670222819155,0.14174429042996034,28,26,80,53,1
0.001088560457926839,0.0012324314560193557,0.1401396944476638,0.13051294914969827,32,26,78,49,1
0.000983116176454523,0.0010393213391400539,0.14069398051302826,0.11963746803945893,28,24,76,51,1
0.0009155345398079342,0.000895667214174688,0.12218949362371931,0.10187065072847808,28,22,79,57,1
0.000835963574068457,0.0008587070219669445,0.12222771631551835,0.099418947022999,32,24,81,65,1
0.0007457665916220043,0.0007488838811542557,0.12540084821682565,0.09375484332367756,40,22,80,77,1
0.0006905387773575721,0.000750874837491296,0.1211428311495645,0.09691899751841515,38,26,83,76,1
0.0006909751392848931,0.0008029486835846352,0.11385102321731451,0.09593537882409713,36,20,81,69,1
0.0007176598314657664,0.0008063150531343708,0.11049015517853145,0.09721823555478672,36,20,76,72,1
0.0008759074227466694,0.0007127598669479666,0.11384368687530447,0.08936189335747334,28,20,76,67,1
0.0008477119880332977,0.0011788005243991346,0.11291649861813037,0.12797720152985123,30,16,68,62,1
0.0009465890816437719,0.0009931853958052813,0.12421087682210209,0.11568804996175817,24,18,65,64,1
0.0008628731384200969,0.0009591346043299899,0.12282235066996235,0.10859054504232159,36,14,67,67,1
0.0007309751073850155,0.000833455340465385,0.1113239889545189,0.09664024092357115,40,16,72,67,1
0.00069635223777226,0.0004971634176870863,0.10642188022895613,0.06119454210916002,36,22,71,75,1
0.000700284282453157,0.0005688430118495589,0.1052809025082883,0.06427941898076622,28,26,71,70,1
0.0006846700101549621,0.0007066042322728176,0.10679803138665071,0.0833342950591026,30,22,77,65,1
0.0007377089867120837,0.000741644349696131,0.11027933955956622,0.08608455524225357,26,22,78,66,1
0.0006953359851514224,0.0007090515565142392,0.1089390444982734,0.08200891801073566,26,26,85,63,1
0.002162194348700393,0.0003882359248489049,0.3281162717744534,0.07409156827527737,34,46,87,92,2
0.002103309649774982,0.00044281758756031846,0.3176310984556948,0.08118370998854284,34,46,80,96,2
0.0019768446806709915,0.0004033805275765609,0.3205619068454006,0.07747346064644497,32,48,81,95,2
0.0018617022977240353,0.00040098405038294067,0.3240336264732794,0.074790067853418,34,42,83,86,2
0.0019485869431817668,0.00038078647983897165,0.332549508279232,0.07042231391497068,34,38,78,91,2
0.0017883448895450909,0.00037352827380731404,0.31884091131676123,0.061594167756773475,36,46,82,93,2
0.001915303210664286,0.00039306878260012197,0.32421529631235574,0.06623103920970863,40,38,84,92,2
0.0018760583456348756,0.00039135174447800134,0.3033769463396823,0.06723826583765306,36,42,79,98,2
0.0016900484471719197,0.0003965020859077184,0.28750454551716903,0.06937803469692953,38,44,84,93,2
0.0018513637578559759,0.0005100463378790895,0.2824120617170336,0.08124769294493007,32,40,75,86,2
0.0019428719304904038,0.0005166320078962103,0.2983603337291239,0.07955834208074998,34,30,79,87,2
0.002322789561299978,0.0005542385627637183,0.35512487956688454,0.08571639840906427,32,36,73,79,2
0.002596956867279785,0.0004815264020826942,0.4005863101417079,0.09024471680826157,40,46,70,81,2
0.003625834703239201,0.0005842025313873801,0.48617970252422293,0.10502999506957114,30,40,71,76,2
0.004400119998484308,0.0006760081676413961,0.5925218687139306,0.12105424451493184,36,38,73,72,2
0.00433755247654239,0.0006756687166945265,0.6063813726437377,0.12380679563757935,28,34,70,78,2
0.004417824405303098,0.0007299455833467175,0.6328254698428726,0.13123355627334007,28,38,74,79,2
0.004098994893409922,0.0006877281890695517,0.5912143068733916,0.12970667875859362,28,38,76,85,2
0.003486559249616236,0.0006281171436828963,0.5081684925746449,0.1243834869527255,28,48,67,91,2
0.0033942988559912315,0.0006234633688626574,0.5322918107752226,0.12719458803828212,30,50,71,88,2
0.0033184946087108425,0.000574710456867251,0.5128232654560113,0.11478032639467793,40,58,69,90,2
0.003501326280686648,0.0005529557850263975,0.5008930455120242,0.11077251324243842,26,50,69,91,2
0.0034116980287742017,0.0005240683789449009,0.5167288886214717,0.10359710134291994,30,52,68,92,2
0.0030103017617704613,0.0004735038862590784,0.47598306789986183,0.09503847084264987,32,50,75,93,2
0.0031782204027208903,0.0004711966874037639,0.47088355971070167,0.10153279471847805,26,54,76,92,2
0.002980440490651869,0.0004189764951046137,0.4516630102335019,0.09244148251341647,26,46,77,95,2
0.0027859757299780403,0.00043188751934487694,0.43726776795760564,0.0881940113125684,30,40,78,95,2
0.002746751461342417,0.000383775106402444,0.4047982154218986,0.08534871374808169,28,44,72,89,2
0.0024469425504442524,0.0003698809282750087,0.3631294335129293,0.07667370973670785,34,42,75,85,2
0.0021908777569669756,0.0003544407790835744,0.3404090233924063,0.07345842851078396,34,44,78,88,2
0.0020874450964050223,0.000355882013546904,0.3304699176173044,0.07322275057380212,36,52,78,93,2
0.002027921339649733,0.00034359103466482925,0.34111032398017593,0.07309130537641985,38,50,76,94,2
0.0019580906138648656,0.0003384660434993146,0.32957117773622874,0.06965171747574779,36,54,75,94,2
0.0017929928826705876,0.00033724304988429937,0.3151461614100493,0.0726039254695544,44,56,80,90,2
0.0017662373923373004,0.0003165190572894961,0.29695046578406475,0.06393109654768188,38,48,78,87,2
0.001667077196141717,0.0003028774354581081,0.2779704770687411,0.05986836751511313,34,44,75,89,2
0.0018496288975863632,0.0003066308991469148,0.2826679066726805,0.061856443400513356,34,44,72,89,2
0.0019591811525315342,0.00028396047629429907,0.2907788307874679,0.05669572484139993,32,50,66,89,2
0.001855751883398235,0.0003052824916770706,0.27587919576123165,0.06032474708361047,30,54,67,95,2
0.0017836163305154007,0.0003065899448508496,0.267984960494485,0.05998690738818822,32,46,78,97,2
0.0017025849717711504,0.00030059259243628566,0.25849993124571197,0.0613577049414429,40,52,73,98,2
0.0016730811157371283,0.00030151122624945333,0.25319629908701663,0.06426595443858843,38,50,82,94,2
0.0017640333440396292,0.0002988514268638719,0.2674087339059396,0.06520961782730599,38,48,78,95,2
0.0018205672236732459,0.0003223277803202353,0.27351381134330727,0.06973220503751729,38,50,75,98,2
0.0019217902415801385,0.00030623063989312053,0.2810202242792235,0.06465195142913097,32,50,80,100,2
0.0021170842228856977,0.0003219909114536653,0.27463983548191756,0.06593832059849973,32,44,78,99,2
0.002074199019817873,0.0003143660700077272,0.3012639467063927,0.06476815612621481,32,52,80,96,2
0.00205795189487453,0.00030904065041967375,0.2894249007172703,0.06374532056667973,38,56,81,96,2
0.0019399243199568403,0.0003232986978419479,0.2888311628316675,0.0671034660303182,30,50,76,93,2
0.0011925317888066777,0.003636657071043639,0.13508456118635148,0.4241032283775588,22,22,67,61,3
0.001132329505217536,0.0035662854755988344,0.12373280323064807,0.39518241739552057,22,18,70,64,3
0.000981184746575722,0.002931014043544448,0.11901346898607322,0.3714909711605871,24,22,70,68,3
0.000998998838541957,0.0031467754430660523,0.11434145058704513,0.37944215655895114,24,20,63,68,3
0.00091463035036211,0.002977181066990962,0.10620323601571638,0.37717889837972207,24,22,70,70,3
0.0009167215425915979,0.0029347981481222364,0.11237863520627259,0.37925236439103854,28,26,73,73,3
0.0008395713251041141,0.0030429699739608247,0.10698898839762433,0.37914843210929006,30,30,69,61,3
0.0008417719792922579,0.0032977533905653496,0.10777612657103185,0.3916181729918939,28,26,82,62,3
0.0008586508690159206,0.0031666776291142495,0.11313812225008595,0.39967723875847094,32,24,79,64,3
0.0008821893395227233,0.003332072295915504,0.1047425383698468,0.3700615052317653,18,30,73,61,3
0.0009600482794371977,0.003395041550340624,0.1043937499089007,0.35467153715071736,22,22,65,55,3
0.0008982887309324284,0.003319162992574753,0.10531102565624374,0.36112279249414325,26,30,69,60,3
0.0008791346588238056,0.0035246403758008677,0.10028432498709898,0.37863770817976483,22,26,76,63,3
0.0008649752248437285,0.0030629851062718145,0.10537563416402478,0.38355220215704255,20,30,74,69,3
0.0009481187057652968,0.0032530197162599583,0.12045026393396138,0.43966487274105254,24,28,67,77,3
0.0010000881481105406,0.0036348236178262187,0.11844574855806299,0.44850298807665506,24,32,66,73,3
0.0010236679743808514,0.0037770690650786366,0.1200194462697894,0.4508621481540685,34,28,66,67,3
0.0009642480991621494,0.003697005232987954,0.11937649578672069,0.4572944350667619,34,30,69,74,3
0.0009004402955763316,0.0035780294012674792,0.10955793995093695,0.4129799179136667,38,28,69,73,3
0.0008671786632424193,0.0034294783618309434,0.10937212666139012,0.408682147286241,32,26,69,63,3
0.0009708162494768422,0.0036177809668610067,0.11294409879149836,0.41197997685515714,24,20,64,58,3
0.0010995963721775854,0.0042655778386103994,0.11570239704793936,0.42608232214431885,24,22,62,46,3
0.0010612512478034063,0.0041509398810762425,0.11462764020450439,0.44283803539013616,26,24,68,53,3
0.0010582461168158349,0.0037981875320216973,0.11079530980978665,0.4157692325682844,22,18,61,58,3
0.000883658164572502,0.00309693119035324,0.10612202297329573,0.366371857270389,24,20,67,69,3
0.000893928930031845,0.0030396056061198344,0.10832330602924342,0.32674533794458543,26,18,69,72,3
0.0007095547670424712,0.0022668221338146264,0.10248123877446401,0.304950052187858,36,28,72,68,3
0.000678843906102217,0.002466382786880833,0.10906531489919688,0.3140494571232799,42,26,70,67,3
0.0006954637739650475,0.0025501043708262474,0.1044528736515258,0.3140456536291522,44,26,69,62,3
0.0006802105642007429,0.002571841249086228,0.10144837877146189,0.31616176213696584,40,26,69,64,3
0.0005773187229044547,0.002088986690625327,0.09069994264038579,0.27178245796647515,30,24,70,69,3
0.0005599197111048978,0.0020257474646973193,0.0853369810648979,0.29328367748846756,34,29,74,64,3
0.0006038898776295638,0.002282653788325129,0.07908756640940552,0.2898462024648937,26,26,77,64,3
0.000624713263697751,0.002367238469278568,0.07938208447730044,0.3005394956195124,34,24,72,64,3
0.0006845994813320116,0.002667542307880553,0.08650064963755674,0.31826048839649457,34,24,79,61,3
0.0006425244357842773,0.0024092539142111713,0.0847646669274149,0.28958242629345765,34,30,76,65,3
0.0006170912482492584,0.0021251067212816805,0.09016399973608441,0.28889731531854107,38,28,73,72,3
0.0005681674840996249,0.002123459363562169,0.08591898930403356,0.26743630402204494,38,26,70,69,3
0.0006153583736933604,0.0024291722745591647,0.08400840141525073,0.2834814036822394,30,24,69,64,3
0.0007065326330031487,0.0027471263527954256,0.09110446981825043,0.2754876534473497,30,16,68,67,3
0.0006810962881722703,0.0027542326247384286,0.08773783570382276,0.28371102061559955,26,20,72,58,3
0.0007280192009396723,0.00263900609937337,0.0954715484663807,0.3031357257537078,30,20,77,51,3
0.000705520602229607,0.002197606017507436,0.09564621002325238,0.2889248303485035,30,28,76,58,3
0.0006457112131790343,0.0021184114227906546,0.09717005364122382,0.29525588316778545,34,24,78,66,3
0.0006725864159359585,0.0020861574003395835,0.10116126778755073,0.308321315631747,36,36,78,71,3
0.0005750769240697032,0.001964743709378443,0.09395450782826857,0.2867423010634535,36,32,76,71,3
0.0006373123472822343,0.0021166821095880573,0.09082312321119561,0.2945582746985252,30,32,73,70,3
0.0005734014405236878,0.002202420905191569,0.08688474126957271,0.308919233650674,32,26,67,67,3
0.0006485722156530983,0.0024549593830355616,0.08459302364697614,0.32314445028949595,30,18,69,67,3
0.000132856712939089,9.373875690756766e-05,0.023436956570250217,0.014419471585532407,50,40,61,83,4
0.00013422597540335148,9.573495221018202e-05,0.024042712635322008,0.014977825467579862,48,34,63,82,4
0.0001386268287553537,0.00010939304819313368,0.024882652684362357,0.015992060590440435,52,32,63,77,4
0.00013730263038566008,0.00010971031755432114,0.024417543517120707,0.0154078852991647,48,30,61,75,4
0.00013725575474155856,9.977472534411718e-05,0.02416003002981383,0.01442003650998336,50,28,61,76,4
0.00013572927504699997,0.00010237922103588333,0.023524814640741305,0.014348516584852679,48,28,59,70,4
0.0001290704703440947,8.291050396126572e-05,0.02293793803862192,0.014471587454299351,50,38,59,79,4
0.00012723423269214682,8.57826306779093e-05,0.02327879682560447,0.014629323073407606,50,40,62,80,4
0.00013031779972295248,9.044833163702935e-05,0.023442271778924332,0.014631033646578426,54,34,61,86,4
0.00012812437395123513,8.188963469325825e-05,0.023846813434474153,0.014584898745685021,48,36,62,80,4
0.00012665815519535213,8.012525831060942e-05,0.022963239527453334,0.014271577798781764,54,36,65,82,4
0.0001203296250494896,9.075900751251152e-05,0.02211955062454243,0.015145707603857363,50,38,65,84,4
0.00012273963982583597,8.892271933848803e-05,0.021604372420231898,0.015293407724312128,58,36,67,74,4
0.00011768675370760015,8.330816484554526e-05,0.021436325195538616,0.013938782651297015,50,34,67,81,4
0.00012665823491941222,8.203562119015153e-05,0.022611572251444466,0.014923042993597048,54,38,65,89,4
0.00012859987108909627,7.883311959744058e-05,0.023218178106779574,0.013547686380903904,46,42,63,93,4
0.0001325370570726514,7.4488760007328e-05,0.023526879121986092,0.013793461039359363,48,36,61,99,4
0.00013036894199731886,8.238249808355811e-05,0.023183009390862548,0.014666804723636573,48,44,64,101,4
0.00014447934492111384,0.00031882585476264685,0.02334655822714273,0.023508212537303043,38,8,61,77,4
0.0003839265079817293,0.0003544651364072411,0.031887518249261254,0.025236084832333812,11,10,59,74,4
0.00039692343018707615,0.0003804023380122971,0.031338364643193665,0.0262234469282569,14,12,57,65,4
0.0003820096255805923,0.00020022252118952606,0.03068134366871956,0.019120952113779375,12,25,59,65,4
0.0003684973808125519,0.0002041086674208101,0.0308592323482675,0.02007074762059205,8,24,59,61,4
0.00018235927150816718,0.00017699994367622134,0.02249434958506602,0.0190074021483857,36,24,62,64,4
0.00018085868396336164,0.0001737262405772854,0.022847538836638443,0.018845796910787527,36,24,62,67,4
0.00018570991261108666,0.00017974471851096564,0.0221687883819705,0.01791627810868105,36,27,61,70,4
0.00017980094050101066,0.00018242075816933195,0.021569739346398487,0.01811797628499469,38,24,62,66,4
0.00017731102469228872,0.00019049322571842403,0.02147672041358398,0.016427104511517198,36,19,60,62,4
0.00018015068692857992,0.00017517907272477938,0.02109030635944279,0.01692714468430114,34,28,59,65,4
0.00017589267274123878,0.0001654830772694151,0.021044554998456814,0.015891699379283867,35,26,61,67,4
0.00017700727703882888,0.00015349483719307157,0.021648403636014432,0.014600180084337208,30,22,63,65,4
0.00017752168563655365,0.00015139327874806797,0.021991404391125048,0.014587796473841697,34,32,65,61,4
0.00017605497282401072,0.00015718508503195116,0.02128143416857545,0.015445050398295775,32,26,69,57,4
0.00017729409701266216,0.00016500898026502957,0.021260734304107902,0.014490569698463074,30,18,65,60,4
0.0001737307473087228,0.00016749552513520505,0.021269666178690742,0.01574968280086395,32,20,63,66,4
0.00017561189828538504,0.00017906425805178252,0.021364692125875707,0.01639358125131875,36,24,63,70,4
0.00017502783353982396,0.00016239055472851488,0.021287667148289,0.014372967080961464,34,22,59,65,4
0.00017246533177466325,0.00015546422479392264,0.021490173438160478,0.01543496067187122,39,23,61,70,4
0.0001765153586040729,0.00016389175083918406,0.021566664452706365,0.01644909800361793,34,24,59,70,4
0.00016693553045542237,0.0001687611397726823,0.0214105654659525,0.016100907645512145,42,24,59,68,4
0.00017719820338426006,0.0001537473540706525,0.0228399079354295,0.017932583441428437,34,28,59,70,4
0.00017501946331482772,0.00016193867398058272,0.022538662859766547,0.017944815905747702,40,26,59,72,4
0.00017534477320028867,0.00014308476236187608,0.022557357032869745,0.01647875752154291,36,22,59,74,4
0.00017012726178908494,0.00016448087849207178,0.022451818915850012,0.016657333959641675,42,28,62,65,4
0.0001701894525803376,0.000143959554903965,0.021471891115839012,0.015915003997496232,34,24,61,68,4
0.0001683699806852129,0.00016326298143859525,0.0223159415336077,0.015017793553374884,42,19,62,68,4
0.00016502830506383938,0.00015258770827746568,0.022103939023891458,0.015512510902547853,34,20,62,68,4
0.0001662286634813899,0.00016400219689102226,0.022674348704203335,0.015508603501040078,42,23,60,62,4
0.00016561622591948402,0.00016442459607826906,0.022611780955613493,0.01597009525264984,36,26,60,60,4
0.0005051246414741004,0.0021552116108777973,0.08364310346327039,0.17981993606893173,34,18,79,58,0
0.000544423718868038,0.001899527512097503,0.08596253096771583,0.17706695601910322,42,20,75,56,0
0.0006012940697870833,0.0019509067779982438,0.08341003868869969,0.18858694500970022,28,18,80,50,0
0.0005748948683201981,0.0018090927743060702,0.07799697592334963,0.17423894250240018,34,22,79,55,0
0.0005613651780310607,0.0017297472209249734,0.08114109847098117,0.1698909774078541,34,20,86,59,0
0.000532589185791,0.001413871585475353,0.08541513353483525,0.1702817295373862,36,32,87,59,0
0.0005290553439341236,0.0014398427497823597,0.08715242988913799,0.17353272940672979,42,22,82,61,0
0.0005150913666830588,0.0014233842510544181,0.08563334389512535,0.17090503946823826,42,26,80,63,0
0.0004914437110209391,0.0017835086753164792,0.0754001212750853,0.17996999899105023,26,24,78,62,0
0.0004236905217581717,0.0015558213488380988,0.06982883305456015,0.15897182598673376,36,22,77,66,0
0.0004935138335408262,0.001698521074037378,0.07694808355344544,0.15379791733878767,32,22,72,70,0
0.0004859339796930017,0.0017320189132938083,0.07659541371465727,0.16687359681828132,36,14,78,68,0
0.0005762154363584923,0.0015185261834508358,0.08351239871139257,0.16157810185230714,38,18,78,64,0
0.0006297086915477993,0.0017154333988018062,0.08335018695646516,0.17822162226110477,40,24,78,55,0
0.0005347917915670908,0.0015540099687513858,0.08048726744970437,0.16485942635273926,38,28,79,59,0
0.0005526431639803189,0.0016376294726100455,0.08532559504774874,0.17783259869924248,42,26,78,56,0
0.0005270276132574922,0.0015445968437068044,0.0833513342572402,0.16475578256916765,34,26,83,51,0
0.0005569522837539185,0.0015523290792194672,0.08545596310934608,0.15568677896070462,32,24,82,59,0
0.0004951769410578025,0.001548308222796591,0.07806859879042122,0.15171458125445392,34,22,80,55,0
0.00047015190946526225,0.0014204226653581676,0.07367563540081681,0.12955400413336457,32,22,75,64,0
0.0004419310153006207,0.0018418509262188556,0.07139208999898036,0.14981250762937579,32,24,75,60,0
0.0004351972357075879,0.001529423205485189,0.06820655725296328,0.1407114416445502,36,26,77,61,0
0.0004528445197892686,0.0016250995985500082,0.06955704359759264,0.15243564959720274,38,22,79,63,0
0.0004348695750296034,0.001517835777006969,0.06665073285251367,0.15659409470533867,40,22,82,60,0
0.0014909927321016788,0.0018169006970231401,0.18133378947339163,0.17339531105894235,26,22,65,56,1
0.0014376864791560697,0.0016749056067361578,0.18230320956657803,0.18309342870331038,24,26,66,56,1
0.001277907226704793,0.0016342643506673906,0.17841485570927976,0.17954569422489325,26,24,74,58,1
0.0013359192097865055,0.0015877076856374423,0.18680021957280651,0.18750463331787295,30,24,75,53,1
0.0011992499440285477,0.001781024131776798,0.16914065959361124,0.19135779758181803,30,26,78,61,1
0.0011931166713178127,0.0013125037597202683,0.16873996020110799,0.15324082114727866,28,14,79,70,1
0.0010791282871830854,0.0015987876797886335,0.16434954328027188,0.17158037964153844,28,22,77,72,1
0.0011278354870680502,0.0012648470012694595,0.17429113578734598,0.14163235160432813,30,30,78,69,1
0.00120440717063677,0.0012907820535870943,0.18702245450337943,0.1441578167803949,26,28,78,69,1
0.0012076821325056333,0.0013152420584897407,0.19478575652719776,0.13254014146502247,34,22,78,70,1
0.0012295847236277082,0.001097164502380979,0.18918217519934308,0.13520741113832468,36,22,86,71,1
0.0011199037320538563,0.001203035194222763,0.17323571129221,0.13442725324960628,32,16,79,78,1
0.0010638243755378453,0.0010506940142721649,0.16041673582184204,0.11607517243477156,38,16,79,77,1
0.0009743347948177192,0.001321905923947296,0.15214359274838568,0.1293695229129435,36,20,80,73,1
0.001049118320733673,0.0009720420638769021,0.15503493251855638,0.10650870541339792,36,16,74,75,1
0.0010700080031652167,0.001196874322384442,0.17540975786467652,0.12967037173607035,34,18,75,65,1
0.001070726332675446,0.0010788920729008263,0.16763100548043633,0.12383634242637716,34,22,71,73,1
0.0011073503609108678,0.0010818432055482645,0.17258226338362256,0.12242698843612909,28,18,72,72,1
0.0010888141826347316,0.001195251753854358,0.17085194177045773,0.1372214973405176,32,20,74,68,1
0.0010466849071710214,0.0010154557545937995,0.14993361834271918,0.12479933836018954,36,24,77,71,1
0.0010116746396013588,0.0011759213923117444,0.15884161011825967,0.1396971423277479,32,20,84,61,1
0.0009777110012874303,0.0011393916143412285,0.14832517606597137,0.14033183754319656,28,26,80,58,1
0.0009207870224949704,0.001152110561872261,0.1372958803481178,0.14631933684733786,34,22,80,57,1
0.0008953543303118995,0.0010988459661426767,0.13003853745430044,0.13377519178362773,30,28,76,66,1
0.004319668701799359,0.000626614248199083,0.7165585209753138,0.13012061839058947,34,52,73,92,2
0.004237791002216759,0.0006123917396696853,0.7384861263385202,0.13187510128281332,40,50,71,94,2
0.003756273394764805,0.0005659237299254081,0.6521370271083416,0.11246942359061231,32,44,78,90,2
0.0037559852986322486,0.000627216009965575,0.6616938138002383,0.1144525830066596,36,44,80,87,2
0.003568367723598897,0.000591481189684859,0.6135052506695648,0.110027861304203,28,44,83,85,2
0.0031565775840759363,0.0006075944470088113,0.5445994570669785,0.10324964957046646,40,38,86,85,2
0.0033600794866364236,0.0005833621489555951,0.5817691243837179,0.10525021347936617,34,38,81,89,2
0.00295829153930326,0.0005450679093935371,0.5077465032070654,0.1006988249809807,40,44,79,92,2
0.0029351056710355265,0.0005535640379594084,0.5023638826761107,0.1018645098777473,40,48,77,90,2
0.002946656700659491,0.000554878430087173,0.48483869018590237,0.10103031429140745,32,44,76,88,2
0.0027159811469151295,0.0005706167870372856,0.4321902336381486,0.10671970377186239,30,46,75,87,2
0.002899041864017158,0.0005741700441794406,0.45281893815224517,0.10585081327015532,32,38,68,84,2
0.002801967839439516,0.0005570729255031402,0.42553043716918265,0.10730698111552343,30,42,71,87,2
0.002720910084351877,0.0006071710150957226,0.43561781413095646,0.10794021525440374,34,46,76,86,2
0.002576081907222688,0.0005665157729885753,0.42310964335365464,0.09675218334693718,36,38,77,93,2
0.0023866824000190927,0.0005371310765032435,0.40685683666794953,0.0922789335343008,38,36,85,94,2
0.0027309993071006986,0.0005284965043152797,0.4591669188351219,0.08962626352263282,38,40,79,96,2
0.0028764309053817276,0.0004634715906329424,0.46248165213217096,0.09046132770794789,30,54,75,90,2
0.0029538758742115034,0.00048738053068004444,0.47161624615517983,0.08996408623797829,32,50,79,85,2
0.0030496083740044425,0.0005381886919776507,0.47885291209678077,0.10147665628287134,30,52,76,82,2
0.0028489560151630728,0.0005253336934070246,0.4386447374323702,0.10423148991025163,28,46,81,81,2
0.0024696885426845516,0.00045986506388610946,0.4267722543641804,0.0935650060787607,34,48,88,84,2
0.0024323153848132646,0.000431562756571926,0.40208384414982185,0.09480079724490387,30,50,84,87,2
0.0023693315342331596,0.000401971996865448,0.35845399561438884,0.08113160210474482,34,44,83,94,2
0.0010678192935168096,0.0034651056517019333,0.12413610113019762,0.4328839227964203,26,30,57,67,3
0.0010300108874248088,0.0034879928060620818,0.11404029767676842,0.41016128800010254,26,30,60,66,3
0.0012084461316226756,0.003938792626582953,0.13478176669668337,0.4652856401464805,24,26,59,61,3
0.0012932570799202492,0.003942401821224587,0.14095414506415513,0.4718281840548315,24,26,59,63,3
0.0010757844610885083,0.004055563131113368,0.13538864601230724,0.505017868462058,28,32,62,61,3
0.0010439504786485718,0.003893046028284681,0.14191615288509152,0.49775835787842515,26,32,63,64,3
0.0009655688733237947,0.0037716148528793804,0.12345694669934244,0.46494791553175563,26,26,57,60,3
0.0009429848803030505,0.004054895819473091,0.1147023889060786,0.4643717914128024,22,20,58,54,3
0.0008381395492316848,0.0034751878666602347,0.10383807487707897,0.4007613128961611,24,28,63,60,3
0.0008228821960317135,0.0034105055275526924,0.09862957048372217,0.38775929693480643,24,22,66,60,3
0.000827895616943245,0.003936478064149221,0.10045136744729741,0.40618000427305917,28,26,69,63,3
0.0007550117304421501,0.002850603426845239,0.10654629155691119,0.38669692276087736,32,24,70,69,3
0.0007881946668417231,0.003212613475496155,0.10723545340289486,0.4134861374684714,26,26,70,63,3
0.0009341987575381285,0.003756443853917484,0.11308342159585082,0.4297364063344921,24,28,72,67,3
0.0009866778589323285,0.0035404977714734507,0.11848144964157906,0.42436654582380207,22,24,72,63,3
0.0009549504917343169,0.003296700105381462,0.11650019719275313,0.4218907652813776,24,24,75,63,3
0.0008877369416496292,0.003001855350917689,0.1116371812141688,0.389601299133587,18,20,71,62,3
0.0009461109307264896,0.0030951917513643533,0.11459393015819616,0.39437069790629775,28,32,69,71,3
0.0006450213118669821,0.002623657570036367,0.09883244504279094,0.38383641767349097,30,28,76,72,3
0.0007705012818226325,0.002932575606331926,0.10364842798487078,0.412450289215234,30,28,69,68,3
0.0008402418506262584,0.003110749159289156,0.11451778101584742,0.42465398535789217,32,30,66,65,3
0.0009619229519323495,0.0034400416625513467,0.11674689430540691,0.43593556981216125,26,22,66,66,3
0.0011356748172919764,0.0039698674752283525,0.13093620064275852,0.4570300211900199,22,20,63,53,3
0.0010587560924848864,0.003409312548379374,0.12638492787906325,0.4103621450946829,22,20,67,63,3
0.00012220208934929683,0.00010483115300621174,0.02199017843058147,0.01593478109953028,48,34,64,80,4
0.00012752954254569785,0.0001102671323996962,0.0231935371097244,0.017131041073147557,52,40,64,83,4
0.00012834750326262085,0.00011201044668654563,0.022902963247802652,0.016426509531124286,50,38,62,91,4
0.0001328751679303527,0.000112582263913402,0.023355224381384435,0.01658397845148525,48,36,60,85,4
0.00013562819464161988,0.00010124902919122712,0.024130989614519455,0.016463197828719644,50,38,60,85,4
0.0001330103195270396,0.00011495502671144317,0.02376902642126049,0.016135235049669454,42,28,60,83,4
0.00014093925562318037,0.00013049218348644867,0.024121182465813063,0.018528935423428164,46,32,59,76,4
0.00013972552446455715,0.00014868334190268597,0.024513429947654434,0.018985600580845106,42,20,59,84,4
0.00013835238685515073,0.00014323431896424378,0.02416827516190028,0.01863153983559089,52,24,59,86,4
0.0001358470210876872,0.0001286202026017586,0.024218465310997514,0.019133236655343038,48,32,62,93,4
0.00018033636771922168,0.00023535574533870544,0.024729376687610542,0.022245653945436785,34,18,64,77,4
0.00018051034422026627,0.00028078179696226443,0.025259651791594805,0.023672020919499433,34,14,64,73,4
0.00040341164470157593,0.0006348371460519141,0.03361311869264323,0.0385668648606462,12,8,64,86,4
0.00039713270735474446,0.0006168761268329606,0.03306377781433085,0.03504337373559553,8,8,62,90,4
0.0003578234778934491,0.0005195792979310483,0.032445146410093106,0.032092468803035616,6,6,59,84,4
0.0001264486085055041,0.00011229361011812696,0.023095471231440793,0.014511134942808836,54,32,60,91,4
0.00012473161490040817,9.978281704471692e-05,0.022783970728517174,0.012734183415026424,48,22,62,85,4
0.0001316140521760621,0.00010426285256850818,0.023705266632207428,0.014598428100192812,46,26,62,85,4
0.00012945503033617793,8.094621887925644e-05,0.023774007479182666,0.013315714949068724,50,28,62,86,4
0.00013227254331099492,8.932235651146375e-05,0.023695732765453347,0.014585264122111414,48,34,62,83,4
0.00013435061329767676,0.0001053881586733327,0.02362305799959737,0.015497989120773308,46,26,60,90,4
0.00012834513623391887,0.00011342670261971596,0.023009584557662967,0.014998036289197325,48,30,60,91,4
0.00012898619898771282,0.00010449046698467555,0.022531293407878867,0.012974550111096841,50,18,59,89,4
0.0001269527401142812,0.00010276058737484249,0.023024723038766976,0.012950855388424064,42,24,61,82,4
