f1ch1,f1ch2,f2ch1,f2ch2,f3ch1,f3ch2,f4ch1,f4ch2,Category
8.223769053342778e-05,0.00110315076275931,0.006793655720410215,0.07278232710979889,26,18,92,28,0
0.00016125539820722085,0.0010989497567772321,0.013812957528792542,0.07432599062065909,18,21,59,28,0
0.0004498808664962767,0.0011125313048064476,0.03850882475132204,0.08337844544234668,10,18,91,36,0
0.0006871715925856679,0.001284211611106043,0.05935220930016936,0.09907301839363315,15,22,75,43,0
0.0007568955832012557,0.0014913988120250187,0.07398857668321077,0.1402763015818211,16,24,61,50,0
0.0009956071041798435,0.0016371505906272556,0.0925797058933861,0.16727141711245258,20,24,57,55,0
0.0008727695688750565,0.0018167100478547098,0.09176384476324963,0.1814760797189758,22,18,59,56,0
0.000834383066695335,0.0017652628009194715,0.08637636744249878,0.1807151501454579,22,22,59,66,0
0.0009919077237744895,0.0015052192890262358,0.10275216320992071,0.16157679056123483,26,20,57,72,0
0.0014274112212493966,0.0013908694708367,0.14867858122443317,0.15930529623805806,18,24,58,75,0
0.0022393405164594215,0.0015421690717751556,0.2184781982465798,0.16858261575795624,18,24,58,69,0
0.002526192764814429,0.0017468151268396875,0.253163435766842,0.19367477528896515,20,28,52,60,0
0.0027673259078214046,0.0016938375748096646,0.28023080200241796,0.19075392752454634,24,26,52,65,0
0.0025492562796276476,0.0017384276162586319,0.2665522871007332,0.1874732600196075,26,22,45,58,0
0.0018276171332099623,0.0015849897655257862,0.2095360773188151,0.16918077600982595,28,22,47,62,0
0.0015713534625151912,0.0013292894994670604,0.1916302065401847,0.14028824356976324,30,18,51,64,0
0.00131347418817591,0.0012851009710550046,0.15553862088421566,0.1349939799167102,28,20,52,70,0
0.0010512614140712518,0.0012380924816547114,0.12853547695791565,0.1232096748744946,30,30,55,70,0
0.0009539202733037988,0.0012754927210285294,0.1262120264519604,0.1152410362025837,28,28,56,70,0
0.001126358461302589,0.0013782848769437709,0.13756144514059546,0.12995537967102544,22,28,54,60,0
0.0012729300810070637,0.0014089785377616848,0.15305216350540982,0.13149178157479305,24,26,55,56,0
0.0012738247725592544,0.0013526116851478806,0.16193467810480872,0.13473086584322755,26,26,59,48,0
0.0013835699679086721,0.0012866379422745732,0.15800222520250334,0.13814530192171237,28,28,59,56,0
0.0013686235428194452,0.001214047174941194,0.1581551437139796,0.13716583484185269,24,22,56,63,0
0.0011506537908236385,0.0011262275933852915,0.14033623528076472,0.13167227759832684,24,24,59,68,0
0.0010641344520749161,0.0010672843866953662,0.12586587868033347,0.12585066082942833,26,22,63,70,0
0.00101475448568437,0.0011210248865914936,0.12568398822855426,0.12713134337683793,30,28,65,72,0
0.0008404384024946529,0.0012355342617515973,0.11454263630976048,0.12668556075977438,28,24,65,69,0
0.0008804316917828711,0.0013150770540925885,0.11840780602813525,0.1251473900722908,30,24,62,69,0
0.0009258148342503528,0.001371736831042465,0.12273985922314067,0.13611907761288808,34,24,64,69,0
0.000839450199570787,0.001409815903539715,0.11578388241361562,0.14448518816772887,28,22,61,62,0
0.0008119441413217089,0.0013812218718944145,0.10661922343544387,0.14120906092932728,30,24,66,58,0
0.0007511753316669297,0.0013043173022107783,0.09535034239842995,0.14677700368578858,26,26,65,64,0
0.000652726409679558,0.0012449602082388806,0.08252739751633155,0.14468075555458457,28,26,69,64,0
0.0007520562731846639,0.0013246966044104863,0.08579064423098748,0.14779275850375104,26,22,69,64,0
0.0007426649563399773,0.00143100211525277,0.0821402519950904,0.160040086599929,30,22,70,66,0
0.000845532057745082,0.0015489265184955117,0.09503549486578419,0.17241528109689513,28,26,65,62,0
0.0008627593022857806,0.0015439434607133376,0.10587325275807369,0.1661678040608434,36,26,62,60,0
0.0007650684002541915,0.0015189707020544468,0.09789766611761437,0.16940817595284638,30,28,62,62,0
0.0007286062477766719,0.0015569915833879803,0.09228037882912206,0.14802089300756863,30,22,58,60,0
0.00069479455047898,0.0016535111711836897,0.08508363227791577,0.1438828898782911,26,23,64,61,0
0.0009255637484535686,0.0014916462718605758,0.09657177854781894,0.1530440200395374,22,24,69,65,0
0.0009976441550113115,0.0017587841290118977,0.1104090431025186,0.18785430651686963,28,29,70,61,0
0.0012108757746123236,0.0020657314630511633,0.12925391273256723,0.24354421836235365,24,26,68,58,0
0.0013938188834908775,0.002308199357168651,0.15881757190463922,0.2804746668557522,28,31,60,63,0
0.001373272321850659,0.002398861449994938,0.16778978204976464,0.2816871679932613,24,26,64,57,0
0.0015331485072696766,0.002177551475482245,0.1881496333956345,0.26006686753152636,20,27,61,61,0
0.001658216950791974,0.0022803895114221614,0.20556452479522389,0.26261987631390743,22,24,60,67,0
0.0010131924392628873,0.0014788392155705142,0.09885720343674621,0.0963889113195062,26,16,60,43,1
0.0009152127603455039,0.0015532652298449465,0.09740773476841261,0.1079379087628504,28,20,65,44,1
0.0011143873185917523,0.0016374948299939826,0.10319461331877149,0.1307061541654363,24,12,63,52,1
0.0013215790123757276,0.0017592053324623077,0.11623186480051488,0.16089377389915246,18,22,58,54,1
0.0013716558928664703,0.0018006665726366714,0.1195889621037938,0.16752013299714336,23,23,56,58,1
0.0012905464515456488,0.0018012838432729153,0.1159167092841173,0.16168383706305853,20,24,53,58,1
0.0013726758277562631,0.001762603945882338,0.12009231054278977,0.1726894066715935,19,24,51,57,1
0.0013187915558351949,0.0016507567855410519,0.12067878324366099,0.19144233519040685,20,26,52,68,1
0.001265240678349568,0.0017170574792546589,0.12334242009342555,0.20065315065599762,23,31,55,76,1
0.0016271045092397262,0.0020052335525997146,0.1471014411552428,0.2451742379157004,18,28,55,78,1
0.0016439099224515483,0.0021429681153456075,0.16743791257891014,0.29434098294928196,23,35,54,69,1
0.0018237084719832505,0.002551562905754568,0.1867521941857373,0.3210225516079708,22,36,52,60,1
0.0023967511278370286,0.0029340940395398535,0.2251669067127601,0.3666136912305221,16,41,44,63,1
0.002417249906117436,0.0028477053617797154,0.22719502034302763,0.3540073275149675,22,30,48,61,1
0.0028026301907224434,0.0031580467269881557,0.23657291966906266,0.3744089482975207,22,28,48,64,1
0.002433266868016055,0.0026863791958802157,0.2487184403954723,0.3909464057512695,26,32,51,65,1
0.0023504803397938374,0.0026360644616222934,0.26512878694297376,0.3881439081318471,27,35,54,68,1
0.002657378826529795,0.0028057127588058317,0.3211347223563714,0.44918223588059697,26,38,53,68,1
0.0028767724258747795,0.0030187527764496554,0.356803856376683,0.45005590732617207,30,36,55,66,1
0.0028347973840138186,0.0028990306756777307,0.345048070642132,0.440758868353958,22,34,59,72,1
0.0027000661311143426,0.0030007073742600683,0.3334876474144602,0.465225435351253,22,40,66,71,1
0.0025270489357383697,0.003224913964664738,0.3173240933364514,0.4532533984783578,24,30,61,73,1
0.002484319353269426,0.003053620692370328,0.29237981353214704,0.4429278140374371,22,33,63,69,1
0.002674998303717769,0.002770254725263533,0.3019181391108806,0.3934665593559945,20,28,62,65,1
0.0025594703365286946,0.002679179266111838,0.2907758318752112,0.35257107176256147,20,25,64,67,1
0.002432248057285722,0.0023245848767355086,0.2833002416534196,0.31154046847246664,22,24,61,67,1
0.0022980899511951063,0.0021712664834367995,0.28612362323886636,0.2925497826410725,26,31,67,68,1
0.0023259921423048223,0.0023801427828606934,0.2754371465671738,0.33159884440434434,24,32,68,73,1
0.002341279332896475,0.0024067280103282664,0.2817707799259355,0.3444419033956058,26,36,66,75,1
0.0023488784632649364,0.002617929025300959,0.26304162007008514,0.37079359753734414,24,34,71,76,1
0.002681096626203786,0.0024689922144604374,0.2816954229529868,0.34618057875976,22,30,68,67,1
0.0023795931432629425,0.0025332592637640557,0.26754800202302137,0.33986010967322816,22,28,60,66,1
0.0023563677320201496,0.0024424929973369046,0.24160000760554573,0.31359921832534693,22,28,58,65,1
0.0022395352146080175,0.0022403087230703864,0.23479404088106912,0.2883684619022261,20,26,56,69,1
0.0021971730039103163,0.002101539160407862,0.2149749400151353,0.30303126810366743,24,24,59,68,1
0.0021348674015502227,0.002509116070991839,0.21759175759426186,0.28647765163670713,24,24,57,66,1
0.0028763939096947905,0.002140175094741048,0.2942964825780458,0.29093212349899605,23,33,63,69,1
0.0026556291184122467,0.0024472717048889254,0.3077361964879061,0.2975826274148026,22,24,60,63,1
0.002530725240615745,0.0022880469289064116,0.2970044651521665,0.28994456154179304,24,37,68,67,1
0.0023537578181708563,0.00239287192207453,0.26561639948413385,0.2581579390756644,18,24,61,59,1
0.0014414898434613117,0.0019564671654252745,0.1568108318101414,0.1967851879733402,30,22,53,47,1
0.001102453474844711,0.001682004959478242,0.09943810355950643,0.13707339432024793,20,18,51,37,1
0.0008501560836118825,0.001029337243555185,0.055107285412728,0.07071795557413839,24,21,80,32,1
0.0009051385994129011,0.00113068389974619,0.06395611074231558,0.07556053508225408,18,16,75,29,1
0.0009420637369342457,0.0010778039051206484,0.07695613621601578,0.08174404593675777,15,19,74,40,1
0.000982146102171816,0.001104914024427972,0.08841136434220187,0.08422034582790656,20,16,60,54,1
0.0012437008681526658,0.00126962969995409,0.10728103790740515,0.1221894159009006,21,21,52,55,1
0.0014486637656358871,0.0013613263785705113,0.12361794476685467,0.1439025171150599,16,26,59,62,1
6.340093104929004e-05,0.0012098804883104394,0.008146938773192064,0.0735215092733516,34,18,74,28,2
6.001117405880761e-05,0.0011754428898375759,0.007751039405836878,0.07449296689790286,32,19,73,28,2
5.730042797343343e-05,0.0012186544848795547,0.00758373366043564,0.07371410545891519,26,18,68,32,2
5.6892748287699155e-05,0.0011968937967062833,0.0068120489109124655,0.07444320181670967,32,23,64,32,2
6.115186706788812e-05,0.001169029761724157,0.007747634359439073,0.07269411226902618,34,16,79,32,2
6.555050269978244e-05,0.0011538552371008698,0.007840544254534865,0.07178636343220288,26,21,79,36,2
6.544455630000208e-05,0.0011503298409093945,0.007460061950713077,0.07103828923793157,20,18,73,38,2
7.295132933334202e-05,0.0011917918047254508,0.008067902272356675,0.073097032653669,18,21,74,30,2
6.978225987644799e-05,0.001205731049474022,0.00808392880845053,0.07376537119208602,18,18,70,32,2
6.978807188742839e-05,0.001182363113467909,0.00856633286374308,0.0729039762448623,22,17,73,24,2
6.980129658143154e-05,0.0011393522990079496,0.008037758101010626,0.07311175479041263,28,18,74,26,2
6.19672544832511e-05,0.0011917773917694136,0.00732776516892978,0.07202093284296365,26,19,75,32,2
7.526114597313158e-05,0.0011165413416179626,0.007886788199262564,0.07076125475920095,26,18,73,30,2
8.746132305740355e-05,0.001187542347599226,0.007981628232385738,0.07518670762698888,26,23,69,32,2
0.00013909519198601516,0.0012930985401702906,0.014208109107378982,0.07868114257881938,18,18,70,28,2
0.00028311455302861043,0.001336296470373001,0.030011961144818876,0.08169683705627577,14,21,59,32,2
0.0006140130244703203,0.0012887784103137467,0.06257011276031754,0.07966888129238292,20,16,62,34,2
0.0012724624401180265,0.0013243161554375826,0.1287082861623053,0.07811820691454711,16,17,58,38,2
0.0019227976306810462,0.0012468899491474355,0.2135862562874172,0.07839373374501211,18,20,57,44,2
0.002961042154834331,0.0011764307967045108,0.3286248783299222,0.09087294549603599,22,23,63,46,2
0.0037251852523684376,0.001247037017061823,0.444445826889445,0.09872306648342222,30,20,58,50,2
0.004747193376707757,0.00143985484391994,0.5257964510140323,0.10568812149813989,28,17,61,51,2
0.005261800651220833,0.0013758136672121332,0.5711926740129839,0.113461669838159,28,16,63,52,2
0.004888106240772472,0.001432370514104212,0.5631699439981418,0.1119291083827418,26,19,66,58,2
0.00503895726030168,0.0015673289503988737,0.5700662850279516,0.11985228950374509,24,24,69,57,2
0.00426716654938206,0.0014399858818152664,0.608615257129229,0.12833507652761159,32,27,69,63,2
0.0043954172156068635,0.0013689603926913825,0.6246762179804609,0.12705700146487128,38,24,68,66,2
0.00520390894531903,0.0014813248465450268,0.7583136185029199,0.1469257260267569,36,27,65,66,2
0.005942810372127602,0.002014366269152564,0.8113630196004735,0.17610627099611612,38,24,65,60,2
0.005726097046316333,0.00197589815994939,0.8280927387115578,0.18067903639606828,32,20,65,62,2
0.005919502911354181,0.002523550092821612,0.8444650476132387,0.2060528065608663,34,16,67,50,2
0.005376576781695438,0.0020962701283005745,0.7886231526577238,0.20156542214293527,38,29,63,56,2
0.006239717646035821,0.002386729066896415,0.8129235386603018,0.2015351276871274,38,20,62,60,2
0.005480108156040609,0.0025220487757969846,0.7719666549023931,0.2339247895520658,42,18,64,58,2
0.006193870357455904,0.0034234588809364166,0.8392496447907999,0.2917894051312983,38,14,60,49,2
0.005558205423996063,0.0035910721026646865,0.784512262610725,0.30635359424394015,34,18,69,53,2
0.004797020803804088,0.0036628115454599014,0.6706461954326532,0.3271280363657994,30,14,70,50,2
0.00487097927509081,0.0034347055874693116,0.6745116357276664,0.2962571475491295,28,16,62,50,2
0.004245317540016348,0.00284853730861738,0.5826708266859694,0.24236522142471323,32,20,65,50,2
0.003287267055312007,0.002768239496714292,0.4536485333470719,0.21103917678663203,28,15,68,46,2
0.002487887567663471,0.0021858002003893404,0.3420610853167454,0.15042702299043054,18,14,70,38,2
0.0011434748677603603,0.0017501067670672302,0.17087209510555473,0.10588699933489977,12,15,118,35,2
2.3471231427736552e-05,0.0013123616811471796,0.002964533099444501,0.07176274403930338,30,18,93,24,2
2.264111558484082e-05,0.0013137259466227999,0.003023017969956563,0.07160231812218328,32,18,91,26,2
2.3927321938375416e-05,0.0013017516729800893,0.002789397091316117,0.07170222905804471,31,18,88,22,2
2.341029571400405e-05,0.0013114758750828904,0.002875945973285602,0.0714185898956297,26,16,85,20,2
2.267534779081928e-05,0.0012986060242533596,0.0028283686624007596,0.07161381388899621,24,18,84,24,2
2.9631782781174137e-05,0.0013551873193559238,0.0038823302416777033,0.07559067533396667,22,20,85,27,2
0.00010667917939087278,0.0013750645812923316,0.012886963133594699,0.10558476489706312,28,20,62,37,3
0.00017486097679043233,0.0016344087978037633,0.02042799232445059,0.14035201687732976,20,22,69,38,3
0.000281585235744499,0.0017164568407933131,0.03167279122378326,0.17276175589936582,22,24,69,52,3
0.0003681447318954414,0.0021335667294493047,0.04653975833587819,0.23289817910854554,26,22,67,63,3
0.0004522580457192519,0.0024589573403385957,0.055413032829443105,0.29840915350170877,28,26,69,72,3
0.0005233063163200758,0.002929619492510037,0.06525807148764333,0.3525031848163109,30,28,61,81,3
0.0005672693363246825,0.003096024309859072,0.07689668437656132,0.38030411068589826,34,30,62,75,3
0.0006204802084143823,0.003308432675895721,0.08079558689897831,0.43225609477271126,30,34,58,74,3
0.0007127003007150191,0.003366238491651023,0.0852044702372552,0.4645112982129999,24,34,63,70,3
0.0009012916470805864,0.003319886468656103,0.11069052817258782,0.5132408700692758,16,34,65,69,3
0.001278077259907557,0.0037378975596047736,0.1443287628153323,0.5485131100099145,22,28,58,63,3
0.0012977191388265981,0.0034047503612577817,0.1513365894117158,0.5329114005606319,18,36,62,62,3
0.0013702701447251405,0.0036821139223624155,0.15856753636392096,0.5075616019857234,22,30,60,62,3
0.0012966700659668756,0.003411388939739979,0.13308500278523944,0.48603989584592816,22,32,62,66,3
0.0009146810569793426,0.0034310781805144803,0.10933609277642559,0.4785183694277579,24,38,68,72,3
0.0008927424034895397,0.003537760380903907,0.11293830520552638,0.5051704950796215,28,36,69,73,3
0.0008223406894190757,0.0033737749994247525,0.11192005919265861,0.5204735027747526,32,36,71,75,3
0.0008059125653254555,0.0034241630365914387,0.12149696950391499,0.5318418021317226,34,36,76,71,3
0.0007556991464336285,0.003249705176431236,0.114035618869158,0.543027607055998,32,40,78,71,3
0.000659213600778734,0.002904611298364289,0.10319688996656173,0.48085573271596727,28,42,82,72,3
0.0006351293690907894,0.0027465512662538877,0.09767090433983733,0.44581300178815,26,36,78,72,3
0.0005838274279345092,0.0027111566868037586,0.08737456371360568,0.4409659594126574,36,36,79,74,3
0.0005548183364508141,0.002695977970215359,0.08974774803676415,0.4245554072021506,38,34,75,74,3
0.0005648195209698976,0.002886120122960439,0.08629616671293962,0.45934132249790494,38,42,67,73,3
0.0005082586205429539,0.0028429292923820336,0.08190902354963751,0.43669599835339107,34,32,68,72,3
0.0004934570275098787,0.002715157862272094,0.07432459404567296,0.40632852374615935,34,32,67,72,3
0.0004122227922791191,0.002541509840484843,0.06787044682737704,0.3770838790638627,36,36,67,75,3
0.00040341162715723885,0.0021414682735853034,0.06860843426890739,0.31146616256656345,30,36,71,77,3
0.000412771234885546,0.002203318544541672,0.06797082011722982,0.32852023443909206,36,36,69,76,3
0.00038947937330545483,0.0021511168267757228,0.06585460347979184,0.3136865495535331,36,32,72,78,3
0.0004117318348168327,0.00217983848283513,0.06482599078072337,0.30440405253843267,32,26,77,75,3
0.00036895679508059076,0.0024197690822054464,0.06189141120907111,0.3278713855377741,36,30,81,71,3
0.00034214204440377214,0.0022416223133506484,0.05913884245787273,0.30412411032982506,36,30,80,71,3
0.00035565312159190857,0.002282141750027715,0.06249563980707076,0.3142531950513986,34,30,80,65,3
0.00038000659683009897,0.002191578691185273,0.06319256235940386,0.30840666978851816,28,34,75,72,3
0.000366202393124327,0.002304100275088973,0.06404255127894254,0.3174606175599864,38,26,79,72,3
0.0003857011702398667,0.0022094840606076923,0.06699728149044061,0.30941504741084463,32,24,81,78,3
0.00039278084384478313,0.002399521967122536,0.06455658141211178,0.33444341910493364,34,32,80,69,3
0.00041455870232019824,0.002576370174951323,0.066305964981098,0.3640435578301758,28,30,82,65,3
0.0003537793815138766,0.0023920941775362344,0.05579525270401596,0.30467896645156184,32,28,83,57,3
0.00038424409944616436,0.002181782099196514,0.05063987257698472,0.2619163642320352,22,26,78,53,3
0.0005372288888836203,0.002296188604898608,0.056469012479438974,0.21249797846010873,26,21,74,49,3
0.0006149165729577849,0.001699528408936406,0.055455820762154925,0.16740460801825757,24,26,66,51,3
0.0008248871276852402,0.0025378493293417336,0.07430027222237474,0.25583252787492905,24,18,66,65,3
0.0008626596964584389,0.003252967226279566,0.08655864108604686,0.3666381726496855,22,26,71,59,3
0.0007134269120538241,0.003474620850847022,0.08137126772094307,0.4374324361216005,26,34,73,65,3
0.0007170947154748771,0.003945236828071087,0.08668107435180653,0.5027361061481642,32,34,75,66,3
0.0005999326670538254,0.0038628234245973608,0.0855317318084566,0.512678140739016,32,32,74,66,3
9.165774347404438e-05,0.001037534383134098,0.007227931123070616,0.07044357887234519,24,21,70,40,4
9.174239117956758e-05,0.001048341673705689,0.007773469544611892,0.06910183662190596,26,18,81,44,4
7.774345449706195e-05,0.0010578968605146827,0.007452431539475893,0.07036001135449398,24,21,97,38,4
7.26732683232615e-05,0.0010630392769477711,0.007040236241360964,0.071694673374397,30,18,108,38,4
7.113830172359263e-05,0.0010313258003349847,0.006734291938100379,0.07022605342326349,20,21,99,34,4
7.655482183185004e-05,0.0010434315913065272,0.006953344303954449,0.07093738613304172,27,18,89,36,4
8.80281927224351e-05,0.0010408382040538713,0.007106968188361286,0.07100858413006289,18,21,72,28,4
8.728693107732448e-05,0.001047229136301991,0.007261916008147629,0.07159707383128434,18,20,76,28,4
8.503712691334849e-05,0.001070702276407172,0.007321742823393505,0.07187479726386264,20,21,76,30,4
8.439892955664268e-05,0.0010658050973264305,0.007435241968545841,0.06998737419817112,24,18,83,28,4
7.98011891394812e-05,0.0010562511277918858,0.007888234330587753,0.06909177073435124,28,21,96,30,4
9.861489318873065e-05,0.0010622541444204885,0.00850260758289505,0.06962539702406943,22,18,77,38,4
0.00010668339798697649,0.0010716048750711033,0.00834295706959605,0.07128011611760288,22,21,65,42,4
8.456427729601183e-05,0.0010979732703899848,0.0066521152362337185,0.07155777275089889,22,18,71,38,4
4.1867035577118594e-05,0.0010784543798373564,0.004069854854848593,0.07263607115973793,25,21,87,34,4
2.9989386311440313e-05,0.0011099454996479604,0.003152562798191052,0.07290596596113572,34,22,91,34,4
2.9171598652466408e-05,0.0010797417999344671,0.003174973586232555,0.07192413342830618,38,21,95,34,4
3.275196701315367e-05,0.0010866778499988546,0.003157720443850929,0.07219295028109018,26,18,91,42,4
3.149501540568643e-05,0.0011028201664641719,0.0032770663386118373,0.07252902153974489,26,21,86,36,4
3.211563024984245e-05,0.0010970542415852616,0.0033278584428887105,0.07357831640787782,30,18,98,28,4
3.222117324293073e-05,0.0011025031774383567,0.003477595955195727,0.07358584403728832,40,23,93,26,4
3.275083278708111e-05,0.0010739867583175226,0.0034495925999706973,0.07321248757456483,32,18,95,24,4
3.2841875822641136e-05,0.001101009689444584,0.003577587332927882,0.07309711925586075,26,21,93,30,4
3.0387315007755136e-05,0.00111002420907545,0.0034992171883757345,0.07244906696485366,26,18,98,26,4
3.010006375445676e-05,0.001099050323334534,0.003454657845987186,0.07218536731697862,28,21,91,28,4
3.0420775899718417e-05,0.0011034777787652624,0.0035992517122591895,0.07153842049423231,24,18,92,36,4
3.389533329974352e-05,0.0011228062104992526,0.003477175684815992,0.0692241930309732,26,21,93,34,4
0.00016044678416791695,0.001432677098769086,0.010193568359629812,0.08276796773777854,4,16,72,26,4
0.00047796111520633926,0.001339800934500107,0.02720867231926976,0.08550123057355179,6,19,38,28,4
0.00055225930663099,0.0013187014424386593,0.032483463731620345,0.08670351364656441,8,16,41,30,4
0.0005025104862363193,0.0012983216219980504,0.031507219770020634,0.08295052623921682,8,19,54,36,4
0.0005062016947729284,0.001318110233363925,0.032413518108911805,0.08544097155741975,7,18,43,36,4
0.0002133715636159973,0.001274215437565619,0.01737046310182353,0.0821190566782363,6,21,55,30,4
0.00038475482898477596,0.0012605211740207957,0.02662106729182937,0.08092423069975,12,16,44,34,4
0.0005582582004112287,0.0012624120708362215,0.03675220251306818,0.0783803923050177,10,19,43,28,4
0.0006395775244278794,0.0011427257492120347,0.04294402523786723,0.07019740703545496,18,18,51,34,4
0.0006108965371822675,0.0011377319531377334,0.043709386765361534,0.06984877204982265,20,21,75,30,4
0.0005789146701218543,0.001122030419165638,0.04293697851418116,0.06832310799935516,20,18,88,30,4
0.0005776068420436216,0.0011348264554983088,0.04331386366135499,0.06839128226602506,22,21,82,32,4
0.0005787974595247452,0.001135866381429517,0.04380067068178625,0.06823366159552188,22,18,92,34,4
0.000571523152261229,0.001141523429726117,0.04339244309043684,0.06857326867689206,26,21,92,28,4
0.0005616360029792487,0.0011464471457060688,0.04291429430003454,0.06913656339587995,24,18,92,28,4
0.000548837969191475,0.0011598002835535514,0.04241952807138365,0.06939737648734419,26,21,92,26,4
0.0005355536767704755,0.001158448773869092,0.041401391156514915,0.06920472455786988,26,18,86,28,4
0.000537451619637659,0.0011490854835834834,0.041899075731111984,0.06877357957435178,24,21,80,32,4
0.0005362426311562143,0.001168056406608113,0.04190999586891702,0.06899662040485322,22,18,78,32,4
0.0005361838768285737,0.001190411938671539,0.04140941728172482,0.06989802418601636,26,19,86,28,4
0.0005314487234991626,0.0011959444953071239,0.04120755995842325,0.07155228863638272,30,18,76,30,4
0.0016524571388130524,0.001770291727601716,0.19976368210473175,0.19322139166177452,22,27,56,59,0
0.0016032230069034522,0.0020411244923289394,0.20001756210896976,0.2014836208510133,24,22,65,60,0
0.0016065883631973298,0.0023056982526888322,0.21728342543874937,0.21318189558996586,28,26,62,60,0
0.0019489471883619067,0.0019261833628773078,0.2417479783964192,0.19758801086459843,30,24,55,58,0
0.001991437857500236,0.0019285076760429342,0.24382010613465255,0.20376214695845815,28,27,56,59,0
0.001873973817594984,0.0019037379697885823,0.22586174864812814,0.19911834623877497,28,24,54,56,0
0.0018242608531523097,0.0017814934317695208,0.20645840596273973,0.18644863853447366,30,19,55,65,0
0.0013296737528570093,0.0016072610074615466,0.178784136178064,0.19611999087215964,30,26,59,60,0
0.0013650491908964225,0.001622710685739185,0.19714315980955494,0.17956360443885896,36,21,63,61,0
0.0012105456647666475,0.0016123570915087385,0.17568304407017923,0.16076683436064962,32,20,67,58,0
0.001240287573896334,0.0018977442094302887,0.16457124211662458,0.16173635684661816,38,17,61,58,0
0.0010876143302099757,0.0019324226439848891,0.14428466088675718,0.19286829465969427,26,20,59,62,0
0.0009288915472397828,0.0019320340575285325,0.11507870884030272,0.2046405295667509,26,23,60,64,0
0.001140694056682378,0.0024032115739234376,0.14704690836697085,0.28584515127275956,26,26,67,63,0
0.001060246314635172,0.002795443031814861,0.14866920417531043,0.3324278298785943,26,24,67,66,0
0.0009922096147158453,0.0030128652561608633,0.14381875852749146,0.34278517499477973,32,24,66,67,0
0.0010987440209726132,0.0027224290837353834,0.1509060840492266,0.3400223188598135,32,30,66,68,0
0.0009886555125141613,0.0025285198259789444,0.1357135635407576,0.3216199218831806,34,26,66,74,0
0.001289538437610518,0.0026489208165715985,0.14977109699374624,0.33815331900802365,26,21,67,77,0
0.0012535530397942015,0.0024963838853219104,0.16615199994862762,0.3527713010855082,24,32,67,75,0
0.0013255289612152817,0.002934807118227874,0.17404339496053428,0.3740561219800754,24,33,66,66,0
0.0012961041588885236,0.0028557166007209013,0.1803937246087058,0.3579879711340954,24,24,67,70,0
0.0012550982980183048,0.002408674251328791,0.17595170481960326,0.304939724900055,30,27,66,73,0
0.0011328158671493574,0.002193549310999675,0.16708873666536006,0.28475591436007197,30,30,69,71,0
0.0010229595741666256,0.0022088093846125943,0.16034262656988274,0.27298873090708264,40,24,72,75,0
0.001094873428452877,0.0022720869336076434,0.15137736757409798,0.2731696934852749,30,26,68,70,0
0.0011420086349930698,0.002422878669645316,0.14715580398258238,0.3008288859380552,30,30,71,62,0
0.001185414083922954,0.002491920830024111,0.15206552190389344,0.2953605256712181,28,26,67,63,0
0.001233162476434205,0.002423683277310697,0.14682334945441514,0.295702029415856,22,26,59,63,0
0.0014980478521918652,0.0026821156817083123,0.17358715178348133,0.304106685145867,26,26,59,58,0
0.0015256366088813441,0.002696404546233973,0.18976735765578595,0.3124328330492705,30,31,60,60,0
0.001833558119296888,0.0025979496121220796,0.22665393214465535,0.30573583122515857,30,28,58,65,0
0.0017687514297880735,0.002947115566549645,0.22237292597520647,0.32048494905472025,30,33,59,62,0
0.0014525887149463973,0.0025791655858002633,0.20104371667257973,0.28906395308123173,30,26,72,67,0
0.0012285563354592405,0.0026048317412770993,0.17056964599488877,0.29187320818553564,22,25,70,65,0
0.0010077793765518154,0.0026254212893044426,0.14956317987410614,0.3004231901974383,36,28,78,64,0
0.001062889010964861,0.0021978587051116544,0.1486162665746795,0.26604305905099124,36,31,77,67,0
0.000981226955287596,0.0024438749614063807,0.1443835712041395,0.2804473838259309,30,26,73,72,0
0.0010990611798191482,0.002271335178393668,0.15163138517690938,0.2491207615697793,28,25,64,69,0
0.0009460859570706698,0.0019774129097025663,0.12835471816302266,0.20826453228517983,34,22,63,71,0
0.0010265031098866573,0.0020711375294311584,0.1355226399203259,0.2111305251434028,28,23,60,63,0
0.0010054315592828449,0.001985612086810022,0.13156913787157384,0.20859650032871235,26,24,60,54,0
0.0009434514892358763,0.001975937817225258,0.1269900466085447,0.20640562482360078,32,25,66,60,0
0.0008997495746994385,0.002066427834782059,0.12138988690347269,0.20780362562455187,24,22,73,55,0
0.0008363111477086813,0.0019110123125850335,0.11158027981425478,0.19271444745971744,28,24,75,62,0
0.0008468489798352411,0.0016699755472035821,0.1113793769558853,0.1585717411004353,30,20,73,64,0
0.0007993325686849979,0.001630989682003436,0.10415750335479075,0.15646029801170477,26,27,72,64,0
0.0008743045515322681,0.0017065187247474528,0.10857051907340706,0.16414874362992826,30,22,72,64,0
0.0009478613607094563,0.0018113289427964241,0.11541089758374942,0.1760476867318005,32,23,69,60,0
0.0022099673091589066,0.001806799196253119,0.2418990523850816,0.2249285834944574,24,22,60,75,1
0.002178389192583459,0.0016332363721444614,0.24255505105115804,0.21682845474070778,26,24,62,71,1
0.0020582451679891805,0.0017856126051764998,0.22516937724591618,0.24368719057580687,26,30,58,68,1
0.0018334701803223155,0.0017785422888247121,0.23473415746000068,0.25320111888246494,28,30,58,68,1
0.0017942386138354084,0.001986432637375572,0.21774083569155525,0.278389332279712,28,32,63,65,1
0.0018865642657471438,0.001915787454859256,0.23109408051594157,0.27039300474576944,24,26,58,67,1
0.002162336982926249,0.0016080552560490521,0.24334193327132878,0.2368050031138507,24,28,57,73,1
0.0020492539622625683,0.0016274944282441762,0.2256489148425932,0.234518446426528,22,30,57,72,1
0.002278040732139269,0.0017486125229666328,0.23917602733939422,0.22609010807995866,26,30,54,65,1
0.0018407755859230737,0.0017232829072947934,0.19280767114218275,0.20151795889977475,20,32,53,52,1
0.0014130320429927767,0.0016430307081619939,0.13893310275376003,0.1676980231352669,16,28,55,46,1
0.0010632459290506662,0.001555300903669079,0.1019391885748286,0.1313440966083902,16,25,52,38,1
0.000633312643413612,0.0012880907665932776,0.053039678726937135,0.0852347798983339,18,20,62,32,1
0.0007363726603609178,0.0013146830366883864,0.06035304331397544,0.08523286308856312,22,19,51,32,1
0.0009085962849767386,0.001390833095208753,0.08361903424936437,0.08554616884729037,20,12,52,38,1
0.0010229863859601885,0.0014549234028917437,0.11289792545020168,0.09729791345373288,28,17,52,37,1
0.0010592310028040947,0.0014399017490343317,0.1289527328799319,0.10784592459465009,28,20,57,36,1
0.0011856111858923831,0.0014684855982586595,0.14090017674403563,0.13447930272847824,24,21,63,48,1
0.0013808455438005496,0.0016494066669602884,0.1651616000389656,0.16458776768550587,22,26,69,62,1
0.0017933936185272781,0.0017686395943252295,0.1940658702412038,0.2033694546228535,16,29,62,71,1
0.0022902200057485804,0.0017881076804316667,0.2275967203657442,0.23222756973013112,24,40,56,76,1
0.0028070637324480964,0.0021891564321957296,0.3075410031633018,0.2871927294155745,20,39,58,72,1
0.0028341689588346998,0.0026424148316915603,0.33199857662426296,0.34338304159398647,22,30,53,65,1
0.0030694409520880235,0.0026121766169328337,0.3716299010562197,0.35535580626941665,24,30,51,68,1
0.0036003463565123972,0.0028947409786233037,0.40986917492174274,0.41342144862176755,28,32,54,63,1
0.0033962159467878046,0.002839142914492358,0.3930073792731109,0.40047510524422086,28,35,55,71,1
0.0032030044114538976,0.0027157008326465044,0.37548534785316784,0.3629364168501872,32,28,58,70,1
0.003155157483983309,0.00238504077641925,0.34850069098302355,0.356902563874352,28,35,61,69,1
0.0028941527277921886,0.0024571085993066706,0.33425734232844095,0.33588106265481893,26,30,58,68,1
0.00268417076657146,0.002439416831357805,0.3241012672745127,0.31321780037321234,24,27,62,62,1
0.002305464314120191,0.0025982867449129456,0.31575335418859274,0.3218514190024284,26,28,70,64,1
0.002683890260022662,0.0025697115315067064,0.3250478975124953,0.3190375794016799,22,32,70,66,1
0.0023095895305784695,0.002308915119069058,0.2785010300281607,0.2905561220481759,28,30,76,69,1
0.0022737619841311355,0.002249646103260798,0.2812263237268071,0.27162429810941,24,31,74,65,1
0.0023401385717310656,0.0021609244157276,0.2780365255969807,0.2630488292850916,26,26,70,64,1
0.002141192032336395,0.0022866553194021595,0.2567787702724837,0.26410981445507953,28,31,63,71,1
0.002747817874187648,0.002034616302775417,0.316102449574767,0.2783511231412489,28,30,55,81,1
0.002656368213532004,0.002632392412626662,0.3010424225324519,0.33214550679748295,24,35,55,77,1
0.002734877826969801,0.0025411159057860326,0.31452344662110115,0.31858900701565923,28,30,61,73,1
0.00265475928850918,0.002723181524559909,0.3116140296612453,0.3379398619092703,30,34,73,65,1
0.0025844164374104117,0.002463303736929438,0.2773073201165856,0.3094280871600311,20,30,69,57,1
0.002768559043676223,0.0024491523113404972,0.29214840592760455,0.2962312448340053,18,27,66,63,1
0.002565846062692271,0.002544985415792591,0.30529977294426563,0.3087978216140869,24,30,58,64,1
0.0025784124884675186,0.002175249738745431,0.2972566924969008,0.2859247093824701,24,29,53,67,1
0.002547214787419951,0.0025601585228101588,0.2940346437288698,0.30140488745816285,24,32,59,66,1
0.002211564888245077,0.0024504173926978893,0.26792339211619015,0.28643866885596825,26,27,62,63,1
0.0023030212117073714,0.002321865556997545,0.26277850257997576,0.27381865294791174,24,24,66,66,1
0.0022875308313536776,0.002178727719100539,0.2733801252451812,0.2712532747484906,28,23,69,67,1
0.0025368525633878954,0.002198017771524083,0.2959813933214293,0.2701768445796653,26,28,64,65,1
0.0032597795130736573,0.0016422835069802638,0.471155262657599,0.12890320254353457,30,20,73,52,2
0.0025348944649456174,0.0017882050655086846,0.36820289918938137,0.1267818589013873,38,18,80,46,2
0.0024938624968167265,0.0016419215735544684,0.3848415914705335,0.12493814989805815,34,18,80,50,2
0.002532540143632278,0.0016173731133380664,0.36403523913659247,0.12029920767213842,32,20,81,51,2
0.002446359064508812,0.0015845853100046612,0.3485674215961237,0.1178090492287568,34,14,86,54,2
0.003069346846802492,0.0016266730621051597,0.47455019168294177,0.11461876945086592,22,18,78,58,2
0.003629128233060162,0.0015179128377343376,0.5238540454256403,0.113471823653958,24,16,76,61,2
0.0035282549013874436,0.0014822610079644816,0.5215903218266823,0.11225113597553422,28,18,75,66,2
0.003745052313037111,0.001450020067681355,0.5602811611597166,0.11245379241732525,32,18,70,56,2
0.002404226792052289,0.0014516174478164466,0.35881849860595966,0.11422564321395723,28,16,77,48,2
0.001536143169488354,0.0014121283061969212,0.23581310467753647,0.10537287312084441,20,16,79,38,2
0.0010274313344888638,0.0012224915948912433,0.14751114835063042,0.09250050056261802,14,24,70,33,2
0.00015620818848586138,0.0011635834760971384,0.021818825601597237,0.07827982102430393,24,16,78,32,2
0.0004424905461654811,0.0011120697021555154,0.051231408177721684,0.08034564374688537,20,18,63,32,2
0.0017280707990990484,0.0011356580976679062,0.18146463679054967,0.08292361104756643,12,16,57,32,2
0.002778528774414189,0.0011946045567440083,0.26707631075755767,0.08525911502035995,16,21,54,42,2
0.0036130476052441303,0.0010963240404898162,0.3816432680534344,0.0915945134087859,28,22,53,48,2
0.0043898032652074336,0.0012430144119545286,0.474994960978168,0.10631143375186786,26,24,54,55,2
0.004131075016523832,0.001298329319782281,0.48727809494300806,0.12431839552161496,34,22,58,54,2
0.004206132295297244,0.0013154248966800773,0.5215684119123836,0.13814463096152188,24,24,63,52,2
0.0038287155801165506,0.001408766329193132,0.493933743742286,0.14669385639540997,30,28,62,60,2
0.0036226473708986322,0.0014711584416066197,0.493883349101886,0.16125054846335882,36,32,63,63,2
0.003240184694805126,0.0016599066561237175,0.4716842140503064,0.1751522416779082,28,30,70,63,2
0.0032930442550993173,0.0018243449718806984,0.44728428912468654,0.18488915928435165,26,30,70,59,2
0.003830256467898896,0.0016587163020810654,0.4794466918096795,0.1781850103139622,28,28,62,62,2
0.003594188403215054,0.0016178885687296823,0.4568803752149929,0.17392913277319202,30,26,59,65,2
0.0035494569950303596,0.001559074635659819,0.453446611828077,0.17158220132810875,32,24,61,60,2
0.003627164065804162,0.001608234103703324,0.4476591010000266,0.18522638688465548,30,20,59,61,2
0.002931855878678738,0.0016676428593413433,0.4023216890305585,0.1844023843455792,34,20,65,62,2
0.002811589508716386,0.0018214227785579417,0.36604649450284604,0.17913674414007025,32,26,65,65,2
0.002419330397795702,0.001676837061046641,0.31217164284156645,0.162438358355745,36,22,61,65,2
0.002517011313814288,0.0015911636931383916,0.31428959805969686,0.15351610593967674,30,20,64,62,2
0.0022630032348925936,0.0015251346567227144,0.2904302195923367,0.15030087699578393,30,20,58,54,2
0.0023048113156274893,0.0015840974202490238,0.31632221126979143,0.15452380976760322,30,18,58,56,2
0.0024404420431691836,0.0016435771672991969,0.33016162994605897,0.15799234059734185,30,22,61,61,2
0.0022680115930722865,0.0015886375374626325,0.31382181077247207,0.15805496730011317,26,20,58,56,2
0.0024571594645054822,0.0017669600842391859,0.317366325120789,0.16070152040208818,28,18,59,65,2
0.002336842877805703,0.001695055449322098,0.2997881666278247,0.16723252162115004,24,18,61,66,2
0.0022655622819319206,0.0017960771419961458,0.29859297399187285,0.17113525398400312,32,16,60,64,2
0.002049375731532411,0.0017289291304292199,0.2636615971677925,0.16650609927378474,32,18,62,61,2
0.001970043061738066,0.00161103856522261,0.24559228871117772,0.16267602583801488,28,22,60,57,2
0.0019456164281620321,0.0016142813050796523,0.2373527588086385,0.14932649771427853,32,22,60,53,2
0.0016911941436254208,0.001535517458570493,0.22060279158459462,0.14831923584327478,36,16,62,56,2
0.0016923258540093183,0.0015122875964806255,0.22330754614114054,0.14386588383262966,36,16,60,66,2
0.0016518155021829318,0.0013436593949024947,0.2125177156001066,0.1352525073701357,32,22,63,69,2
0.0015037824945794468,0.0016044333593715292,0.19961562407701128,0.15715401818511984,28,20,63,62,2
0.0014131883847984617,0.0016929749694955742,0.19814872910009979,0.16150691191205196,26,18,70,61,2
0.0015368830914597635,0.0017276267229763503,0.21147998052283415,0.16364256918492118,28,22,72,59,2
0.0014847161723042146,0.0017009862648092536,0.2167636320005471,0.16591290466208442,30,20,72,49,2
0.0006499448437794081,0.003646041996828461,0.08471814180149657,0.5079335690845008,26,36,68,62,3
0.000761237002332416,0.0035671190392893137,0.09726898781734923,0.5219305920193973,26,40,66,63,3
0.0007763395982243744,0.0036282960958986805,0.09953719549159083,0.5210662673891935,24,36,67,66,3
0.0007577873669753577,0.0035802820556611725,0.1041648005080203,0.5038418752812861,28,35,71,72,3
0.0007028455013655241,0.0035966563064246657,0.10280428427580901,0.5204292669731234,34,32,74,71,3
0.000658488260087603,0.003313160525314829,0.09574954117446907,0.48188147049167573,28,34,75,74,3
0.0006322610960763853,0.0031562607923159305,0.09556075255039752,0.4421879278101962,28,26,80,73,3
0.0007208043698370746,0.002802005780727164,0.09402970370016836,0.41063594520198665,26,21,82,77,3
0.0007338248284948556,0.003090592343982239,0.09893920372466886,0.4293343393954441,32,24,86,69,3
0.0006180688247905343,0.002862403985318152,0.08243660236734945,0.36569529799516043,32,24,78,65,3
0.0005395305101024961,0.0029645898587721538,0.07131701051614091,0.336519997347282,32,18,76,60,3
0.0003930188924817071,0.002596627921938431,0.057485165005221696,0.3046938097492681,34,27,74,62,3
0.0003942258699779164,0.0022720791654114673,0.04819858092768141,0.28073999029709834,34,30,67,62,3
0.0004960249189783833,0.0025685562979102204,0.06496078408902892,0.3546220228475895,28,32,68,66,3
0.0005906966497792975,0.003157692564607846,0.07655476595579713,0.4070778585514595,38,32,64,69,3
0.0006290635685900289,0.00322452454768002,0.08175796670464199,0.4664717200620268,32,31,68,72,3
0.0006822462232318403,0.003833637620580469,0.09107321583374109,0.5131627444419032,34,30,64,72,3
0.0006650795225837378,0.0037138550957019345,0.08640067388523248,0.5194549095511273,24,32,61,65,3
0.0005849691793352535,0.0037945317937623036,0.08472966362159322,0.5376100362874223,38,40,63,68,3
0.0005716606466119901,0.0035542323753187527,0.08653272120958745,0.5146227939757855,34,40,62,65,3
0.0005136349721751795,0.003130780232594118,0.07652297068506914,0.4565398624918466,36,38,62,68,3
0.00047477548104187445,0.0031107397829854577,0.07098702225250163,0.4530298043942258,36,35,70,66,3
0.0004547925157476773,0.0031545973639542633,0.06932049090203955,0.44866540218089296,32,32,71,63,3
0.0004055346478670924,0.003032314550000795,0.06007291364025973,0.4368951085243381,32,36,74,65,3
0.0004048819980127348,0.0027464489106433054,0.05905434055036253,0.4351795118131164,34,30,80,69,3
0.0003925641311571722,0.0028374537460575232,0.06110721505145256,0.4323551650260167,30,36,77,73,3
0.00039289141485114663,0.002488844124186813,0.06059788956294992,0.4119281589466679,34,38,73,76,3
0.0004302808176760694,0.0026081997924529525,0.06581983692391047,0.44228071361206267,30,36,71,73,3
0.0004711217014068417,0.0031332621690703315,0.06999680573738787,0.49098054273367203,36,36,66,69,3
0.0005360135266235161,0.003516507350912264,0.07824624314090527,0.5290846649905,34,36,66,67,3
0.0004914398544699584,0.0036146378367396224,0.07878792690933789,0.5534706490274314,28,36,75,65,3
0.0005336960988867658,0.003984327124693823,0.07816104620753543,0.5574336115078512,32,34,69,62,3
0.0005494840087489866,0.0037575579222569266,0.08015057070526246,0.5462009492888292,36,34,73,64,3
0.000587365781859139,0.0037341064073645007,0.08493703107910137,0.5733263218799072,30,38,68,68,3
0.0006353187411459652,0.0036843888667630674,0.09371863434770175,0.5591302286266878,34,34,63,66,3
0.0006695873184359016,0.003531587704513004,0.09304858163079618,0.5710776452744725,32,34,65,64,3
0.0006392146899158719,0.0038189070323113774,0.09434776860124372,0.5571607454862092,32,34,62,67,3
0.0005941861590419877,0.0034272584268604297,0.08388575976205184,0.5190122355329954,34,30,63,69,3
0.0005820826642610579,0.003575072189488136,0.08207736321920502,0.49287938008630905,36,26,59,65,3
0.0005881454604892919,0.0033402556328830137,0.08370815665572277,0.4640175450068264,30,23,63,64,3
0.0005312226739209818,0.0033752026758426586,0.07388269715053256,0.41222331961840497,28,26,63,55,3
0.0005550716775712646,0.003016726356492676,0.07829166570349945,0.4379095705795998,30,28,65,58,3
0.0004942120242679597,0.003221365769398179,0.0720485654698496,0.4222386429134938,30,22,66,60,3
0.0004735382410614298,0.003038653390239676,0.0689569872361656,0.404376304994084,34,32,64,55,3
0.0004729275080038496,0.0027297139484594004,0.06959192371187177,0.399909014879722,42,28,66,59,3
0.00043334099684177167,0.0023641901966758657,0.059348969251780424,0.33989559383696116,34,24,68,61,3
0.00036936568952489207,0.0023316873131048995,0.05275312242666665,0.31024749043440125,34,24,71,63,3
0.00032454276333890726,0.002018936739993231,0.049759803922381066,0.2829722871439376,36,28,72,68,3
0.0002932656272491615,0.0020346804500414777,0.045208417127544434,0.2768971623283596,30,28,74,66,3
3.373052696166129e-05,0.001305109164904429,0.004499913125542975,0.07282567265482265,32,16,83,25,4
4.871343252092758e-05,0.0012955924015231799,0.005998489574896267,0.07274493188698211,26,18,70,27,4
5.9822514544709884e-05,0.0013188545328521786,0.006422345725249228,0.07272668231884218,16,16,76,23,4
6.252590545818128e-05,0.0013143017849372033,0.006575085582142679,0.07352260724292159,14,18,71,29,4
6.532976255273906e-05,0.0013039722430948615,0.006346232026368033,0.07299915556609907,10,16,80,27,4
5.251597775751439e-05,0.0012941132130281738,0.005388487319897551,0.07189951580812531,14,18,81,29,4
4.83686202491774e-05,0.0013031521688251471,0.005472973672115706,0.07199809207554404,18,16,73,22,4
5.155394944033563e-05,0.0012818714173396853,0.006292345341712077,0.07209009244806165,18,18,74,23,4
5.86927751642401e-05,0.0012939315679593225,0.007085838453192475,0.07225336810887859,20,16,72,25,4
6.40104291493611e-05,0.0012918075123543415,0.008162261281474952,0.0720959379329525,30,18,69,27,4
7.461771242066048e-05,0.0012863047059912605,0.00929567106230029,0.07012605479656318,28,16,75,33,4
7.499014022291713e-05,0.0012969032730993386,0.009972829612117451,0.07045797924916598,28,18,74,31,4
6.460874334071844e-05,0.0012860083414166195,0.008964396491599164,0.06997700288909021,30,16,83,39,4
5.6105132522907564e-05,0.0012917612406250672,0.007555955504399807,0.07027517287444753,20,18,92,33,4
3.964765961130275e-05,0.0012957908805745876,0.005593754980497728,0.07008433221323876,20,16,92,31,4
2.7471748799828446e-05,0.0012976408469087181,0.0036436614209534213,0.07064075461455299,26,18,97,27,4
2.0695906677398956e-05,0.0013003043154822627,0.002858056259421988,0.07059993327727301,40,16,95,31,4
2.389109526494981e-05,0.0013180827629825948,0.003078163836920294,0.07175035724837561,32,18,88,26,4
4.344782735722352e-05,0.0015112171584698375,0.005118192205050077,0.08653033532820176,26,19,88,24,4
0.00014583318782838132,0.001888600708555956,0.011305466829285973,0.11891630803318268,9,20,73,23,4
0.0001804223602934555,0.002357574946311209,0.012865113590858773,0.14848783844569283,8,20,71,23,4
0.00024785827852233974,0.0021583634642894922,0.017380301592907894,0.13997403835551608,6,18,72,27,4
0.00026220613571458726,0.0015962315979706318,0.02168073206167826,0.10291211002413705,14,20,61,29,4
0.00018468853268441155,0.0012256416056595882,0.018146659309152,0.07266389671357368,14,20,70,28,4
0.00018484538587001066,0.0011743463497057662,0.018326861313833164,0.0682033304229272,13,20,68,32,4
0.00017057304453531506,0.0011693256815540835,0.01371671104985014,0.06809493601852563,14,18,67,30,4
0.00010594131111690328,0.0011537638952281376,0.009508663571788775,0.07065712810114322,20,20,71,34,4
8.720859557319464e-05,0.0011785088349153406,0.007921085538771836,0.0696061193405237,18,18,63,34,4
8.957128899868432e-05,0.0011298462616501997,0.00793483298363138,0.06897953594060867,18,20,57,30,4
8.894872187546852e-05,0.001168179549711002,0.008006624169611919,0.06863558252617703,20,18,57,41,4
8.694873878299047e-05,0.001130831204896573,0.007380868326275969,0.06640926466135808,24,18,53,42,4
8.913801722775354e-05,0.0011177701901841424,0.007274528660242062,0.06652504179465435,20,20,61,39,4
8.803856133850649e-05,0.0011631093287047766,0.006917136695168407,0.06589234460993657,22,16,54,36,4
8.434352477932835e-05,0.0011531567612734822,0.00673124116852748,0.06971813305336175,18,18,52,31,4
8.693162912035141e-05,0.001143207327880844,0.006397463228706617,0.06851655569754835,16,20,60,28,4
8.051087036601933e-05,0.0011153214255512356,0.00626141934788143,0.06823733136827591,20,20,60,30,4
8.178658962468518e-05,0.0011209547822340481,0.006214583442491546,0.0689447664291909,20,16,53,28,4
8.426207203942839e-05,0.00112293576141646,0.00662000456180465,0.06549521675561579,20,18,60,28,4
8.269077795246259e-05,0.0011135408157076075,0.006300481689232302,0.06676106561379931,16,18,59,30,4
8.102881141744991e-05,0.001117925340526583,0.005873494248132889,0.06708371958297467,20,18,55,28,4
7.976977162336687e-05,0.0011040513287913383,0.00572493626969616,0.06603189842866214,22,18,48,26,4
8.266003785003037e-05,0.0011009834569172885,0.005087184840480148,0.06496898318533942,22,16,50,28,4
8.297219652549063e-05,0.0011195641310896925,0.005185156126887165,0.06847979212221258,20,18,52,25,4
8.072595851232531e-05,0.0011346306714089813,0.00512129254277007,0.06697855416778148,24,16,56,26,4
8.246130064225684e-05,0.0011317455882987341,0.005260634060181327,0.06751980880202274,18,18,53,28,4
7.886738282324435e-05,0.0011384013640801764,0.005202552939584684,0.06666779422437323,18,18,57,36,4
8.10022519052047e-05,0.001090161058258258,0.005335118901096503,0.0667077780891818,16,18,56,30,4
8.031487640547066e-05,0.0010650564740781313,0.005237402787115449,0.06661442200605873,16,20,51,24,4
7.697480210635964e-05,0.0011020967856455758,0.005197342116323343,0.06704328268582706,20,18,52,26,4
0.0016849850127660046,0.00251104659915541,0.2044079463271167,0.272256279950774,24,25,63,67,0
0.0014649489509340032,0.0025003953136434596,0.1823419607372999,0.29971853847548396,26,30,61,61,0
0.0013232793372995807,0.0025132477685881156,0.17022257246423572,0.3084226695943822,22,26,68,62,0
0.0012786541550015343,0.0026077686558941453,0.16689936629917762,0.29887662498018114,26,24,65,60,0
0.0023598567131053777,0.0026533759003872126,0.2569532842406808,0.2874379186348483,16,29,60,68,0
0.002808536780211204,0.0026146575317284957,0.303286395321739,0.30963008576236145,20,26,62,70,0
0.0032686670238576804,0.003368578239228032,0.35046537467568456,0.3494344861626553,18,21,61,65,0
0.0036530459521059684,0.002977485252024925,0.3971494450311476,0.3575914555380895,20,28,61,66,0
0.0030340338282900496,0.0030709617205178386,0.3580102240239748,0.37947026649228643,20,26,60,66,0
0.002975672111657646,0.0029132943621413467,0.35635444719565856,0.35233873497536666,26,26,59,59,0
0.0028873205711311485,0.0025997032368919783,0.3493183800476382,0.31856554235675755,24,28,57,70,0
0.002912016453447454,0.0023771785662371763,0.3343554060831959,0.2989618188841362,20,24,54,68,0
0.002880087795574967,0.0022093961288581574,0.31560349840931545,0.2723565363985694,26,34,57,72,0
0.002934806954233092,0.001954394204506008,0.34317499832221976,0.24709189569221332,26,28,57,70,0
0.002749850840013918,0.0020056485832199607,0.30900928169051745,0.22498938680792502,28,25,60,69,0
0.0026937101321191275,0.001956270237526523,0.3028076631884195,0.20219216494765344,32,18,58,79,0
0.0024355569561945404,0.0018604156424248865,0.2714361567157355,0.2038433528688551,26,27,57,76,0
0.0021629379574891433,0.0019189763165557206,0.24902694547980292,0.2356199493328628,22,26,63,76,0
0.0019424750725055883,0.0021036494546791203,0.24307560942645687,0.24942293639993932,24,29,64,70,0
0.0016352901669822479,0.002147260770807529,0.22511166588258025,0.25268899485872365,22,26,63,67,0
0.001753241201353171,0.0021841778627200866,0.22641952924733824,0.2592246050334266,24,29,60,66,0
0.001572369831282059,0.002015977399477893,0.20459723245691577,0.21915418651672236,26,26,53,65,0
0.0016237280202780285,0.0018369207493743572,0.20290625831238712,0.21042745971562463,30,31,54,66,0
0.0016745472738673908,0.0019697914882210355,0.20191025685603603,0.20626702398926774,18,22,54,64,0
0.001730045042631767,0.0015839605842180363,0.15231004358501238,0.18228468397015285,19,30,51,58,1
0.0018899894989748433,0.0018549947614801977,0.17700729421377343,0.21583801216494702,16,28,55,63,1
0.001910812780663492,0.0017717565000033766,0.1749159037146883,0.2160894313850833,16,26,53,69,1
0.0018233919256008032,0.0018141794401343074,0.18532918956335495,0.226789764201406,20,24,56,76,1
0.001552910059551322,0.0018380507195136261,0.1857951481538231,0.2383943597110343,18,30,59,74,1
0.0017444863006864126,0.0018136521359935023,0.20419567767726016,0.2359501368645169,22,28,55,66,1
0.0021379049861496623,0.002027898679453222,0.23255776333751996,0.2589637512634987,26,32,55,66,1
0.0022863232064855078,0.00203051628306663,0.24838049271119605,0.24990689935812668,30,22,53,60,1
0.002205258749874964,0.002166447634868564,0.23496907529368624,0.28362193297141725,30,24,51,62,1
0.002220239348834692,0.0023784643857660474,0.2388332412093982,0.29334197475955354,18,24,54,65,1
0.0023923444938376897,0.0024612953656580686,0.24354628497725583,0.33050187134912057,22,28,60,71,1
0.0022314765237739843,0.002357396568062514,0.24365552659302372,0.34930404589789354,20,34,62,75,1
0.002438496290416606,0.00249933746772012,0.28017958231849077,0.38264822753409394,22,36,58,71,1
0.0022702439559882234,0.0028423242194362906,0.27634871618074563,0.42309210087892696,28,32,64,70,1
0.002373328603097706,0.002915134723829761,0.2707456843032147,0.419866445585917,22,32,60,63,1
0.002386119974732576,0.002899914626147156,0.27816176028272005,0.4185114608128942,24,26,59,68,1
0.002273260307994021,0.002640464219000474,0.24692817779052983,0.3689569707311704,24,26,57,72,1
0.002206472996450281,0.0025520805621684467,0.2563473138468281,0.3515218481292484,20,28,60,66,1
0.0021482737289157026,0.002325152524376013,0.24755063810718528,0.33817449277449346,24,28,62,66,1
0.002005176769139135,0.0023289939947062394,0.2163465293819169,0.33932054888109164,24,34,70,61,1
0.0018176593490848607,0.00222296610236034,0.20879193397002802,0.3321164059427398,24,36,70,60,1
0.0017034571183424457,0.002076763331730708,0.19077675107667796,0.3057469545254805,28,28,74,65,1
0.00205286917239731,0.0022479098125422923,0.2044227641656644,0.27391151342475034,18,28,75,67,1
0.0021386059149445047,0.002039168434762759,0.2164396779134566,0.2506977565409618,24,28,64,71,1
0.0001084348885090175,0.001344137846187351,0.015928132270260745,0.08125821292747956,8,16,89,35,2
0.0005567624851919382,0.0015036754662423053,0.0749337135624512,0.08927185562758791,22,18,52,38,2
0.0026210600681188996,0.0015909049466517862,0.24083747569203506,0.09751568589936964,12,16,51,42,2
0.004603364668864042,0.001552162176151296,0.4142594223514967,0.10044076373130052,10,14,61,59,2
0.005470330879152275,0.0015729728757092815,0.563977022720141,0.10959663970719513,24,22,62,59,2
0.0069498786118270435,0.0015288144627618042,0.7156334027526997,0.11829175085730138,30,24,56,61,2
0.00576983383801439,0.001541037949546538,0.7110027542853591,0.12335063938837505,30,20,58,63,2
0.005042518004701932,0.0015637045081701596,0.6654625459057963,0.12427788007975364,32,16,59,63,2
0.005022219674814995,0.0014745716000325402,0.7026286332231849,0.12874568845568934,32,20,61,67,2
0.005050972026863866,0.0014721548978483602,0.6876203762991607,0.12247477567219196,34,22,58,72,2
0.00545560476714774,0.0014937151525989457,0.8313861362741034,0.1270254896045798,40,20,65,64,2
0.006450216846958545,0.001446046501361991,0.9499904464385392,0.12904176615192522,34,24,65,65,2
0.006547088266181421,0.0015297978266422252,0.9895539546008518,0.1343525066925972,34,18,65,62,2
0.00687087795373017,0.0017062746456196832,1.0510849994241833,0.14657440065976562,32,16,72,55,2
0.0066312800907631,0.0016494974450254663,0.9815493058016768,0.15255421540311473,38,18,72,62,2
0.005604409930295929,0.0017210897523908834,0.9046976513360714,0.157748376719926,38,24,73,65,2
0.005366652802210643,0.0018197292743284091,0.8215838092640637,0.15888603955994796,38,20,72,68,2
0.004664365423016071,0.0015686104962549115,0.7446271188118158,0.1513838872906299,44,24,74,63,2
0.004585856989587241,0.0016394482160696413,0.7550829849836728,0.15214915524623976,40,20,72,62,2
0.00413377491376212,0.0014881846098829207,0.6748788168087607,0.14580930079274823,36,24,72,64,2
0.00383251913938021,0.0017497199839851877,0.6372319304797059,0.14703601898345578,30,16,71,66,2
0.003913812639823992,0.0016790959105172833,0.6278145978338219,0.1417468001710745,32,19,75,66,2
0.0031974850166282,0.0018574385623453499,0.4912798506415343,0.1338360509440125,36,12,76,68,2
0.0032792444351704493,0.0018915783074395923,0.49943704692178803,0.1409845677626017,36,16,71,57,2
0.00048468246005086536,0.003643919937246589,0.0778430606521901,0.5260373684956752,36,36,75,71,3
0.0004952778334607763,0.00354912523540024,0.08065885937957358,0.5484497151015825,32,40,79,69,3
0.00048264647314812776,0.0033460360146580948,0.07472499209906024,0.5333261711041907,36,36,74,69,3
0.0004639476036127143,0.0032643306131996514,0.07274700693720064,0.5275778853123976,34,36,72,72,3
0.00045917463673085876,0.0035614530902881446,0.07240868378678968,0.51534683509539,34,32,67,73,3
0.000490553983316131,0.0031197862529199864,0.07604030937600299,0.47391364095296934,34,43,63,70,3
0.0005272935492895878,0.0032889563957256797,0.08380658745848224,0.4862347803045499,32,30,67,70,3
0.0005540943973660253,0.0031887573606127063,0.08308992176761819,0.48977177208465145,30,34,62,68,3
0.0007106254911448489,0.0034388136403962818,0.09036469412694983,0.5088251102079163,24,32,67,69,3
0.0006984871155799586,0.003356638865759902,0.08943343242190811,0.5065712366909101,26,34,68,67,3
0.0006682842021742552,0.0034925884255685097,0.08748444803214907,0.5182702344059518,30,32,71,70,3
0.0006424653034476915,0.0036970050253000725,0.08583007390747932,0.5441566948140368,36,36,75,68,3
0.0004919823874540339,0.003479378899728347,0.07578514735184767,0.4987677663201489,38,32,70,68,3
0.0004446703163278035,0.0035061617511421587,0.06921997547169755,0.48188472896349305,40,28,72,63,3
0.00038499139905173935,0.003040168560871112,0.06124872166224119,0.43481560922305257,36,30,78,69,3
0.0003888828430779709,0.00299156137045147,0.061993571522798614,0.40952238301447047,34,29,76,70,3
0.0004452169784939365,0.003239130439148426,0.06875643765274402,0.42073042657164317,36,30,75,70,3
0.0005664562274518168,0.0033398362260866356,0.07677206322612883,0.44157725691602406,24,32,70,68,3
0.0006199517773935384,0.003515086924230142,0.08483945257844418,0.45216816550102606,26,26,67,66,3
0.0006663316441473912,0.0032941840178577785,0.08985278819880439,0.46930368461774136,32,32,70,68,3
0.0006953939214224087,0.0029899416885292174,0.09276293507162899,0.4287289261618773,34,32,73,72,3
0.0005849406986880683,0.0031811466808950523,0.08737694226458753,0.4452652002052898,36,28,79,70,3
0.0006359462834481565,0.0034919910543223104,0.08341727761613656,0.47530003238440466,30,30,71,66,3
0.0006117854331701425,0.003488615755849473,0.08568089207047165,0.4945427712065867,42,32,66,64,3
0.000524539193989411,0.0011918098729373548,0.0407379889354687,0.07092399934000099,26,17,74,28,4
0.0005221378595819544,0.0011819619772878225,0.040953452323190635,0.07085870625122805,22,18,64,36,4
0.0005190375781958194,0.0011883763611592257,0.0410839126859727,0.0697295169101343,26,17,70,34,4
0.0005278006940929961,0.0012036894123983806,0.0420394640088662,0.06996627817549983,26,18,70,32,4
0.0005376256121548371,0.001205911382044487,0.042599850460097025,0.07133561823396063,26,19,72,36,4
0.000543048375331474,0.0012152590941383863,0.04307296734009528,0.07057773038386886,24,18,74,36,4
0.0005512561988531202,0.0012154926437689803,0.04403024052052149,0.07021248915683515,26,17,74,34,4
0.0005577069816960108,0.0012192691929243248,0.04465600592343578,0.07102748820276177,30,18,88,30,4
0.0005577140311025379,0.0012387033442825637,0.04514928072540922,0.07238884420133526,28,21,92,34,4
0.0005685816153668109,0.001217875422146586,0.04593827510967081,0.07290722154120692,28,18,98,42,4
0.0006916513618771603,0.0014894130641771137,0.052497996876332005,0.08403789052456917,22,19,88,27,4
0.0007513205422879887,0.0016382348079945228,0.05362288676266336,0.09414787161978556,18,18,51,25,4
0.0006256100716347598,0.0015258715043288732,0.04711293083560497,0.09002905482322848,18,17,41,28,4
0.00036640692892065763,0.001458807517158608,0.029886888182984975,0.0848910765666956,12,18,56,30,4
0.00013969037606287974,0.0013237057456864394,0.011654953959610054,0.0811891724345768,16,18,71,31,4
6.591628619206986e-05,0.0013216226317138244,0.007940884602728798,0.07640899517683805,22,18,67,31,4
6.848770472124982e-05,0.0012961460027874356,0.0075176648862355,0.07374511186371632,18,16,69,31,4
5.774128388199809e-05,0.0013053965401966768,0.006303012746453277,0.07357200975271068,24,18,75,26,4
6.074544596380641e-05,0.0013268945676103573,0.00603938000057541,0.07414732921615896,18,16,81,30,4
7.929011210179815e-05,0.001281916575639742,0.008510237687523037,0.07172013404982026,14,18,78,29,4
6.470182291703461e-05,0.0012917911368520928,0.007537479951062358,0.07339533113597647,16,16,82,29,4
5.8658228570171314e-05,0.0012773890590026694,0.007129607346971486,0.07218106050459247,12,18,91,27,4
5.010648314246893e-05,0.0012712804474920808,0.006757047324841057,0.07201778056074756,10,16,91,25,4
2.8706858332647107e-05,0.001298967879602137,0.004074123553921613,0.07153660018219142,30,18,97,27,4
