f1ch1,f1ch2,f2ch1,f2ch2,f3ch1,f3ch2,f4ch1,f4ch2,Category
0.0005650717747784885,0.0006190529259723058,0.0426072623992656,0.04616051152237202,23,16,49,53,0
0.0007599530742445927,0.0010239361796342522,0.08099684959708162,0.07630431262459633,20,14,56,39,0
0.0008809349551933133,0.0011780852246640041,0.11070961835221665,0.08812106708468005,28,20,67,37,0
0.0011355819142495405,0.0013207776471415248,0.15579764090739293,0.11048750235437438,26,18,78,38,0
0.0013036094610324894,0.0013071774927254853,0.189210301622324,0.11537993747817113,28,18,83,43,0
0.0011946642052163608,0.0010321768579204407,0.19769387037305608,0.1085374716319957,30,26,92,55,0
0.001228178653084529,0.0011147419216787089,0.2147835904788725,0.1190693974514686,34,30,92,56,0
0.0011852139298407192,0.0010929600803621787,0.1979742623399312,0.11832046960407627,40,20,95,57,0
0.0010802007031205003,0.0016084118771349648,0.2222353818820266,0.13966771172636908,44,22,93,57,0
0.0012177115798897636,0.0018035902181117202,0.22014636334598084,0.158447812747576,38,28,93,54,0
0.001252577615638121,0.0018098873297968318,0.22080221502737912,0.15025804638108028,40,24,91,53,0
0.0013669978629113192,0.001698677949570081,0.22833276728339325,0.14631452423583244,34,26,87,61,0
0.0011349859750595145,0.0013239468971757956,0.2172806530933719,0.13609990340150996,40,24,83,60,0
0.0011502229585444973,0.0011826776097801537,0.22055357015312219,0.12424222177941013,40,22,83,55,0
0.0012381559958433094,0.0011718812618975027,0.22933724301578942,0.12248274125877572,42,20,83,65,0
0.001472792582971031,0.0011096651068137492,0.26492292418636626,0.132321264890954,40,20,82,62,0
0.0013743489215407162,0.0010247198010740147,0.2389069975636691,0.12376068705343304,34,24,86,65,0
0.0014811088577628812,0.0010585171112249346,0.24295829705775043,0.12354623163217705,30,24,90,62,0
0.0012915289450811615,0.001125029787758612,0.22318093733456587,0.1288204088290691,32,30,89,64,0
0.0010662403463946985,0.0012089837082548199,0.18890806771507812,0.12637184759175318,34,28,88,62,0
0.001181444517660034,0.0013412132148540152,0.20714852738813988,0.14622345871585038,42,24,90,57,0
0.0010022934122883435,0.0014429891356758792,0.18733488441915108,0.15682193059952015,38,20,88,57,0
0.0011737127651284777,0.0014970718752661827,0.20968705181422498,0.15847992549179912,35,24,92,54,0
0.0010699703732818956,0.00151532226568648,0.19752807795469626,0.162144814323258,20,26,95,49,0
0.0010787965344058407,0.0014783644204201263,0.1951663959262742,0.16193462234280162,28,30,90,53,0
0.0011293119975056235,0.0015382675722585906,0.20122691909844168,0.16941297082236093,32,26,90,49,0
0.0008445245985427123,0.0015746203509574936,0.1715163022828358,0.17212743453618395,42,30,92,54,0
0.0009464846196161901,0.0017039287672374903,0.1811457944568977,0.19124135507803547,42,24,84,51,0
0.000929301253836713,0.0017861380427917533,0.1644586544984083,0.1941434393602154,34,24,78,52,0
0.0009788425665524059,0.00169341067021024,0.15576895493403342,0.18419976980816308,30,20,78,55,0
0.0009518800097707736,0.0016877179337349035,0.1585523606764574,0.1890938791697508,38,20,79,55,0
0.0009024838641696658,0.0014260609518891513,0.15777154777278096,0.1695790459600506,38,26,89,55,0
0.000993905855560893,0.001287501303801789,0.15372138367436208,0.14830356852940552,37,22,88,57,0
0.0008568539963178331,0.0011498362592476969,0.14592981046982254,0.14388850509222986,40,22,84,60,0
0.0009588365975716634,0.001207643946279975,0.14934231079501092,0.138023526738142,37,30,80,64,0
0.0009014266128513559,0.001206363629871971,0.13306243501304293,0.14470392906054408,34,28,79,69,0
0.0008844339433223414,0.0013354806185094691,0.13179070450528413,0.1551817104031175,30,30,85,60,0
0.0008044700989172852,0.0014421373372136314,0.12367994352924194,0.17415893563212773,28,34,85,56,0
0.0008859774507971348,0.0016276510037522799,0.13701614372329468,0.17943027899066402,34,30,86,51,0
0.0009628400183912872,0.0014198141324898556,0.14735756365967304,0.16506912294870346,34,26,80,56,0
0.0010709739096963088,0.0016136000222642174,0.16154875075740727,0.16268653437440006,40,22,84,54,0
0.001227314071287789,0.0015960557559914785,0.2093614487963638,0.13884111012514383,34,18,83,54,0
0.001219336527359698,0.001573199563732296,0.19448994364608785,0.12247359900423241,36,14,87,54,0
0.0013915680707851962,0.0019894953237230974,0.21629978453191204,0.1481969915608689,32,14,83,44,0
0.001476301904230646,0.001846298718891356,0.225798416125508,0.1559882684032695,36,22,83,43,0
0.0013987612444990773,0.0019214315362344498,0.21342160830467952,0.1687510565249899,34,22,76,45,0
0.0015750045137482283,0.0017698043720822203,0.2229113505997249,0.16038157478937523,32,22,76,56,0
0.001237431298672257,0.0017440710032973284,0.2064911250939436,0.1587664509612453,40,20,80,55,0
0.0007308117296322498,0.0006656121952981649,0.07828493231386077,0.054337251059125076,19,21,60,55,1
0.0009723446922706327,0.0008441511270550072,0.11761803894118256,0.07238828732558479,22,20,70,60,1
0.0011337041918070767,0.0009233764303326244,0.14117406093665122,0.07962555572786065,30,20,71,54,1
0.0013627728709431097,0.0009130442530133328,0.17288679030011303,0.08259598169549748,24,22,71,57,1
0.001398835390683033,0.0012145322755868495,0.18199829613418245,0.10214630928188678,28,14,67,65,1
0.0015348532930007461,0.0011034728840377732,0.22696018530709325,0.10462673578025526,32,24,70,65,1
0.0016039555842160447,0.0012642642271690156,0.24349196706330203,0.12561900888452587,38,34,73,65,1
0.0017668456110321567,0.0012812498564248756,0.25349524706630594,0.12861026270281017,38,28,80,57,1
0.0018003803794656994,0.001230515622254042,0.26298344018573966,0.11700280179048295,38,24,84,63,1
0.0016679516449174226,0.0014186963358944818,0.24606934195742258,0.1304773097030913,42,24,86,57,1
0.0017141869196127496,0.0016383180180158793,0.2656307404937934,0.1324622775469603,40,17,87,51,1
0.0016657554490303221,0.0015004226303680596,0.26436511907523913,0.13427229450116512,44,14,84,56,1
0.0015545410016243543,0.0015953383654029216,0.27100112492276224,0.13264858353366163,44,24,80,58,1
0.0016669909486178008,0.001576454324677799,0.2518525324652115,0.13591320891407765,36,18,79,57,1
0.001544136294471759,0.001373797392475487,0.22588403711296048,0.11914130109293823,30,18,77,57,1
0.0014745146695192258,0.0013360399683494722,0.20834462186517758,0.11929329328747414,34,18,74,58,1
0.0015234585283861934,0.0016289104706061436,0.20939547617154172,0.12938446373331378,32,18,76,56,1
0.0016412381845173933,0.0013496939000009426,0.2174286368869004,0.12258515640892266,30,20,72,55,1
0.0019469874518058996,0.0013915495204643044,0.24473655355820595,0.12971163539228012,36,26,72,52,1
0.0018926517639753983,0.0012028696886929844,0.25206876948702445,0.11954203613448279,36,24,70,49,1
0.002160419080933595,0.0014188091769884534,0.26802784808377383,0.12291417900285034,30,18,68,52,1
0.0018732897722187314,0.0012034480732725365,0.24443594449369144,0.1153028222722698,32,22,74,55,1
0.0018169020062386932,0.0014158883482409878,0.21780388621574095,0.13490413720132113,22,22,77,51,1
0.0017584399020637834,0.0014990054501915187,0.22599133275501682,0.15208068182143872,20,24,82,54,1
0.0015474121469439789,0.0017880084043901206,0.2128696228596361,0.16723879586315415,30,26,79,51,1
0.0016994452824240123,0.001811720833179082,0.22467477223705723,0.16930834450698162,30,22,80,49,1
0.0015125920243499976,0.00165703611474862,0.23083795821691347,0.1502365848885443,36,20,81,58,1
0.0015288485764789837,0.0015892021152285564,0.22874669563803957,0.13764332939026633,28,20,77,55,1
0.0016298625906625438,0.0013450082510138113,0.2286024044736407,0.12183715616404908,30,14,72,46,1
0.0014933225989022588,0.001423751900629686,0.22157318256032107,0.128598843768342,34,16,70,49,1
0.0015332871081723146,0.001271227872978914,0.2264524111646484,0.12576776698018774,38,24,71,49,1
0.0015947335613874774,0.0015121978878438343,0.21409978658547327,0.12955867310272617,34,20,76,50,1
0.0015214271266995418,0.0013770357713012444,0.21559165818484688,0.12620669417389993,32,22,78,51,1
0.0016230313124388999,0.0015557768049879203,0.21306691902514052,0.1256888790262175,28,14,80,50,1
0.001652635190461677,0.00161950908008482,0.18961846731014761,0.11454161477400313,26,14,79,52,1
0.0014267817259777647,0.0014257733529944561,0.18340514063145133,0.10807618822506702,30,14,77,51,1
0.0014323634507004423,0.0015268053898925208,0.18511471719920947,0.106685213749797,30,16,72,50,1
0.001259884644265616,0.00130307490781783,0.17494691851328942,0.10090869039610423,26,16,70,61,1
0.0014220654662278145,0.0013966701882628038,0.19534814025278877,0.10951131821711345,34,18,69,52,1
0.0016921607469554325,0.0015659074964734952,0.23062154316525008,0.11768662292946622,30,18,71,50,1
0.001671280044505987,0.0016246309185724433,0.21296060975070416,0.12653490927185468,28,20,75,59,1
0.001802944410691703,0.0015435790536895702,0.23620699063643824,0.11763446604978223,30,16,75,57,1
0.0017093627307422927,0.0016612600971903154,0.24183817201522778,0.1325022293203787,30,22,78,55,1
0.0015775286314293159,0.001989876964470302,0.23275010143935346,0.15978833551884372,32,18,86,53,1
0.0017259010439631493,0.0020192298870710854,0.2413221097250201,0.15753781962663835,34,16,80,56,1
0.0017464733443682617,0.001992673630882719,0.24752597871425547,0.17227829376103385,28,16,78,49,1
0.0016744634162582013,0.0019841056127227643,0.24552942557151414,0.1670367529205161,30,20,84,49,1
0.0018790330162739605,0.0016884254813389773,0.248445432671419,0.15007426361230408,32,22,70,53,1
0.0006207555221543789,0.0003418037625742588,0.1029243877904217,0.029813549365698,32,18,80,57,2
0.0007430663178801434,0.0003429402099664709,0.13341465267603841,0.03103708582131009,30,18,84,55,2
0.001036918661144367,0.0003467205854415011,0.1864025197505235,0.03267267268210359,36,18,89,61,2
0.00111422616134368,0.0003667959158548688,0.2068171712364496,0.03868454254368364,38,26,85,62,2
0.0014600522493932683,0.0004851833132349406,0.26693243092553676,0.04574394175003528,48,20,83,58,2
0.0017263740219583257,0.0007080430262018971,0.29426070775501306,0.058597124954015666,38,18,75,59,2
0.0018976159019039437,0.0007201732010978397,0.34943820495999545,0.06658224714211675,40,16,79,68,2
0.0021638039469749596,0.0008285663877568201,0.3939482994693221,0.07369746475310701,44,14,85,65,2
0.0023884446735569008,0.0009067677023724071,0.4493028193354153,0.08050039317151315,46,22,87,62,2
0.0025881425411535836,0.0007850052853002539,0.5181784227747412,0.0826220874573731,52,26,89,65,2
0.0025457902355389855,0.0008396890422076908,0.5312530414674473,0.08393442744488258,48,22,85,61,2
0.0026630583672820375,0.0006668507019701145,0.5355297604988272,0.08625991055551555,46,26,90,66,2
0.0024962003830504933,0.0006853431976179518,0.5066719856759168,0.08637987865768344,44,26,90,68,2
0.0024125589096300666,0.000715154717974109,0.5033994983358592,0.08463008479089211,44,28,92,69,2
0.0021905721403638924,0.0006358572422668481,0.4582183713430536,0.08199722230766412,50,38,97,71,2
0.002107921774665587,0.0006145544411300831,0.46998762997200244,0.08056294342082787,48,42,97,74,2
0.0020992794387722537,0.0006328981355347902,0.44765540629430217,0.08192961402049022,50,34,97,72,2
0.002196035602695885,0.0006228444920885636,0.45339484612193376,0.07999359350010261,52,32,100,74,2
0.0022713738765319583,0.0006694857423482727,0.45340054055015827,0.07996311625815732,44,22,95,74,2
0.0021961712399050357,0.0007119705801299315,0.4495369409953543,0.08025199486817858,38,24,97,69,2
0.0023229369485221903,0.0007119543397554099,0.486383622448361,0.08012510754354644,36,28,96,68,2
0.0022270167310248735,0.0007163450462059718,0.4422198185319346,0.07738399877395356,36,22,92,62,2
0.0021928400837467497,0.0006335293057283215,0.43946948251704143,0.07251183399581519,40,24,94,67,2
0.002027402177780145,0.000549545595006086,0.4096959736188697,0.06590540267306301,44,30,94,68,2
0.0017241555490390436,0.0006214891919766278,0.3591425864564202,0.0706679078973793,42,28,94,66,2
0.0018275370962142232,0.0006066618872290822,0.39972596094131274,0.07957366241334747,44,36,99,70,2
0.0018355538275418722,0.0005877500355249779,0.40777020757446353,0.08070655049500003,50,28,94,67,2
0.0017915499026434404,0.0005928726325949489,0.40720237271883514,0.07928541386602131,50,30,97,65,2
0.0017623180077757177,0.0005406925647386917,0.4078060864358561,0.06978561871111279,48,32,95,72,2
0.001768690130114256,0.0004982173246261772,0.37065600523019265,0.062184419064928255,40,36,91,70,2
0.001667143935759306,0.0005202898708304943,0.3444175407599044,0.06277258718017459,40,38,95,68,2
0.001669308457603264,0.0005041664412343265,0.3547036596618479,0.06427697101111826,42,36,99,64,2
0.0015544418312691205,0.0005122879126191083,0.3370447006149539,0.06811929363547363,38,30,98,62,2
0.0013599633573019379,0.0004914499057544764,0.3000952643039454,0.06552046279577402,44,28,98,63,2
0.0013440839281585908,0.0004845357147187105,0.3065081361490895,0.0637412177811685,48,30,99,68,2
0.0013849937209957112,0.00046954424870261966,0.29643353756572344,0.06091698856958183,42,34,90,75,2
0.0014808625572606071,0.0004735123148121024,0.28877315261118913,0.055796427811145057,38,26,91,72,2
0.0014942289972156365,0.00046677308659231874,0.3056426091049226,0.05952110559953404,40,26,86,73,2
0.0015754556094184384,0.00046523885325172647,0.3070823188908517,0.05980941433205901,38,32,87,73,2
0.0019415863443192703,0.0005802795492724888,0.3002552024858369,0.06081151040316768,32,26,88,67,2
0.001846728765468058,0.0006500242758273663,0.2675761818909571,0.05711502474287471,26,18,87,69,2
0.0017055521265549136,0.0005396405732460851,0.23878355503207427,0.04979059749496135,26,16,82,71,2
0.0013412061932873117,0.0005007255165728709,0.2197800212194324,0.04296468222940206,38,20,77,69,2
0.0013532433517105236,0.0005579138557189959,0.24800419125348563,0.05042828730967768,40,20,85,63,2
0.0015415749789825877,0.00067660723751544,0.2892529031938151,0.06067008043565864,36,28,89,69,2
0.0018833343812487244,0.000644145165269866,0.3703910807091606,0.06960021927726803,42,22,91,69,2
0.002041445864611995,0.000628823166014262,0.4231026566200257,0.0741487314299408,48,26,95,76,2
0.0022757752112294123,0.000623148061864445,0.4594756880647185,0.07693858501134111,48,32,91,79,2
0.00034918033092892287,0.000991707336945554,0.034092686112523765,0.07992491833942121,26,14,48,45,3
0.0003645610423646178,0.0010598662475310885,0.03738526241849939,0.09326530592229344,23,18,58,47,3
0.00042111155634303685,0.0010485105652215027,0.044906033719202605,0.1002057248264084,24,16,64,52,3
0.00043419731758900614,0.0009993960598016012,0.04670880991471535,0.10609844549877673,24,22,69,58,3
0.0004265706569356049,0.0010682931351645405,0.04546664617830688,0.11728641591236508,26,28,63,55,3
0.00047823425617691374,0.0011964478399524347,0.05172581943770064,0.12132571305449297,30,28,60,62,3
0.00046832041659820774,0.0012541220452457619,0.053532269590174805,0.1342199461381318,26,24,67,64,3
0.0005818113640091404,0.001459975936395491,0.06995212424016374,0.14902766349674942,29,22,72,58,3
0.0005534815147808417,0.0015969204585687107,0.06885981403973754,0.1585314523825662,32,22,77,58,3
0.0005289406696304282,0.0016804207004238864,0.0660195292785542,0.17407316095516379,26,26,78,65,3
0.0005989755238753277,0.002185576710705095,0.07832066392601793,0.2004028337647407,28,22,76,66,3
0.0005657571063170954,0.0022918244522079465,0.07153416505814988,0.21968931394473912,30,22,76,66,3
0.0005585941716326795,0.0025041581969362154,0.07598870597970146,0.2348774066845114,24,16,75,63,3
0.0006917797954416328,0.0032496029759893704,0.0848483200677625,0.2555047038933482,22,14,76,64,3
0.0006262782083279357,0.0030217401356802953,0.07684487619576344,0.24812565217064114,22,16,78,55,3
0.0006726861880470023,0.0030786843336062237,0.08024106141113188,0.24762329760708984,26,18,64,58,3
0.0007303154891196117,0.002859941236651998,0.09369242023259162,0.2762844919427317,30,26,66,57,3
0.0006475343571673898,0.0027501133602050283,0.08725300077207669,0.28484995295061877,32,22,67,52,3
0.000679490033781882,0.0029757087242750224,0.0875755586453854,0.28971562677483664,28,22,62,56,3
0.0005967261332667444,0.00264690075696611,0.08347142459447776,0.27390906613342114,28,24,67,61,3
0.0005222524266793778,0.002588603382183203,0.07610896079576954,0.24323677927865406,32,22,74,66,3
0.0005994603312210602,0.002472407036394835,0.07940524570829711,0.2322531404394434,32,24,68,64,3
0.0006487875675270012,0.002714392151380384,0.07936242857925281,0.2661116379086057,26,22,68,60,3
0.0006620277685779438,0.002768220535171616,0.08660060250930192,0.28638685503469,25,20,65,55,3
0.0006624432342262305,0.0028381600834474496,0.08089659844378627,0.3007444927779998,24,26,66,58,3
0.0006232165898957804,0.0030163923182106546,0.08062155454459914,0.30969382860771405,28,26,70,57,3
0.0007230822974953813,0.0025838267133837995,0.09132808179915425,0.2804087296927748,30,24,72,53,3
0.0006893950926582193,0.002701395448524697,0.08574430700871094,0.29268980917492743,32,26,74,58,3
0.0006909931269668966,0.0026369435704207992,0.09056017951619508,0.2740536355794016,34,26,73,54,3
0.0007081730962243546,0.002495148124210429,0.08940413368025728,0.26245912204268057,34,20,75,57,3
0.0006151497433509255,0.002174599244751695,0.08096303651690448,0.2538108714171296,24,26,81,57,3
0.0006261691890598025,0.002211439627974675,0.08286827046227463,0.2526543368510658,24,24,88,58,3
0.0006112583415537956,0.002610049829888837,0.08340314692186039,0.24465807228317718,26,26,87,64,3
0.0006432731240808568,0.002563066040101762,0.08682137322685474,0.24219501760780934,24,28,82,60,3
0.0006817138171681264,0.0023933854836341566,0.09023694075564972,0.24146907365099987,34,24,74,63,3
0.0006895381010364675,0.00208457031050221,0.08747155520661179,0.20779263252349725,31,24,75,68,3
0.0006814423518440052,0.0018575695950062668,0.08486236941895996,0.21886854153582463,34,24,75,65,3
0.0006751522959865735,0.0020089859375422288,0.08145636745500878,0.22761308563703214,24,26,77,64,3
0.0006539259532283798,0.0018292824596893979,0.08862652629546183,0.2240110706617228,30,30,79,64,3
0.0020967462389179102,0.0021334533257717633,0.14965124966701457,0.23806017188539816,8,22,76,63,3
0.002282577763628293,0.002349919295288484,0.1550372813565497,0.2312926261118035,8,20,66,58,3
0.0023057462981073214,0.0025769625014852365,0.15569862002654505,0.23914594780273285,12,20,68,59,3
0.0006932492129565775,0.002538100602060105,0.0850228523688992,0.242107761115695,26,18,75,57,3
0.0008139996951319757,0.0025944456497846193,0.0963868769299955,0.2582640599269781,35,24,78,59,3
0.0009206463738044259,0.0022992287532477636,0.103416180267853,0.2548816806848762,28,24,75,59,3
0.000925957001282369,0.0024278186224727153,0.11217530097647245,0.28779795888752097,26,32,72,69,3
0.0008228849223960256,0.002095255422360751,0.10991276676982302,0.26729414277533,22,34,77,71,3
0.0007371497547078924,0.0024935183090954967,0.11027083188273362,0.30303174147371603,31,24,83,60,3
0.000409744630472701,0.0003841624348536552,0.023351935941390813,0.025733681678215645,14,21,28,40,4
0.0003864624423978288,0.0003656313125438466,0.02244577014997918,0.025508386223573157,18,18,26,38,4
0.00038283799931120347,0.00036629333306200664,0.022184583718900454,0.0252998816525899,16,17,24,37,4
0.00037886541425800245,0.0003672120622225223,0.022093584951919834,0.024726889092742548,18,14,26,37,4
0.0003757716765492426,0.0003644818965451993,0.02200441340803177,0.023502275715012018,16,13,22,36,4
0.00037532022772633226,0.0003426828046141913,0.021650640709763296,0.02281723151616459,18,16,22,34,4
0.0003772780034167798,0.00036878829294852985,0.021655821506793932,0.02387091385567972,16,17,26,36,4
0.0003756569743509252,0.0003633514315632381,0.02142506186240989,0.02311996989016171,18,20,22,38,4
0.00037352713523003346,0.0003635819829688839,0.021712980442676198,0.02307065868889003,18,21,24,34,4
0.00037515361325680957,0.0003618979111310762,0.021676392669502647,0.02335514751597567,18,18,24,29,4
0.0003756886632510328,0.0003714889611761325,0.02147438073435017,0.021947342994140827,16,17,26,30,4
0.0003687302661024342,0.0003638012596284812,0.021571448064248933,0.02222241584007545,18,18,24,27,4
0.0003756599495714903,0.00036068101491517355,0.021474426451409758,0.021926962847775004,16,16,28,34,4
0.0003745599937504722,0.0003556378797712251,0.02121286777193052,0.022139270661748693,20,16,30,30,4
0.0003723996853914087,0.00035195790213805395,0.02146350816902384,0.021584674934606436,16,16,26,34,4
0.00036688254799250165,0.0003520452869405078,0.021608599725961332,0.021076191139764562,18,18,29,28,4
0.00037140449557671143,0.0003641615256978889,0.021819304398279196,0.02128398568953158,16,16,25,24,4
0.00037660956966107143,0.0003687146036949516,0.02205288707466749,0.021288955815711018,18,20,28,30,4
0.0003755494129695039,0.0003679278735025163,0.021906250062778857,0.0215918940218783,16,18,27,30,4
0.0003785482513884655,0.0003697087003682327,0.02225593611409258,0.021904986189927242,18,18,30,28,4
0.0003788938346086465,0.00037339116556971125,0.021762831331709736,0.022216232021714535,16,16,22,28,4
0.0003733246393394136,0.00036482834422909936,0.022313689484537182,0.022249221625070707,18,18,25,24,4
0.0003754486332890062,0.00036846181622799036,0.02205352685656817,0.022154514763820864,16,16,27,24,4
0.00037593167135723074,0.0003733964120465131,0.021779387470407228,0.0217594806168016,18,18,27,25,4
0.00037359983402644964,0.0003696714622347012,0.0220252943219418,0.02164549419335429,16,16,27,30,4
0.0003769198758610364,0.000383385205071102,0.021635971205690316,0.021797709089584564,18,18,27,30,4
0.0003771721047852894,0.00038102022158843134,0.021508489634900388,0.02235652976751102,16,18,29,30,4
0.0005129020635613809,0.0004985830361604454,0.03287623222874223,0.036205646322024096,16,20,32,28,4
0.0017028219468215252,0.0007084218505445865,0.10855650848597156,0.05684363205720157,5,13,117,46,4
0.0019070568078670466,0.0007652440631691415,0.11400155649454688,0.05929504247573055,6,12,89,40,4
0.0018926584771492253,0.0007682641222041458,0.10968744868549556,0.059138453731251865,4,16,63,47,4
0.0016857634297542353,0.0006482804786359331,0.09868067276469736,0.04502639039837534,4,10,65,40,4
0.00033740631437902623,0.00028172518171177185,0.02189861529467452,0.019377734893968972,21,13,30,40,4
0.00035264792854307564,0.0002730308442695029,0.022060656615659105,0.01755958293598961,18,14,26,45,4
0.0003507216009437702,0.0002541487540103867,0.02226568203042515,0.016740511566936726,21,19,25,42,4
0.0003530642459591104,0.00023779232907886603,0.022118508062606786,0.016508428757000905,18,18,24,40,4
0.0003572522387533283,0.00025665969752839736,0.021727890498117772,0.01782011674385377,17,23,22,35,4
0.00035217502478742725,0.00027404037107722583,0.021453989718486943,0.018195694811007003,18,18,24,26,4
0.00034146549922256015,0.0002797803015180764,0.02097208799785834,0.018272895653130422,19,21,22,30,4
0.000334042830597013,0.00027858565529480976,0.02062160936558817,0.0177082955260379,18,18,24,31,4
0.00032986328440110326,0.000278808329555583,0.020712570988032634,0.017869025861335305,17,21,24,28,4
0.00032955867260449584,0.0002783790521024861,0.020429849034632082,0.017595924300655374,18,18,22,28,4
0.0003313004690441457,0.00027766196289766775,0.0200345919767714,0.01807145331793501,17,21,22,28,4
0.0003232099060263122,0.00028031748653940456,0.01995253287113146,0.018236126777658193,18,18,22,24,4
0.0003275452058884298,0.0002870064183332442,0.019995421630566838,0.018854078649405824,19,21,24,26,4
0.00032814696588790224,0.0002825438550573635,0.01991524576872278,0.018129495556101344,18,18,24,28,4
0.00032542145103027406,0.0002790978833162488,0.019896812914001732,0.01814260685777568,17,25,22,34,4
0.0003281166355533851,0.0002815463211996419,0.02033079884135171,0.017843276519587562,18,20,26,36,4
0.0009227155058053348,0.001714517992431179,0.14764662330048348,0.19421914302827484,29,18,88,55,0
0.0008755417844144843,0.0016724280839004772,0.14731381184142123,0.19194201357207288,24,26,93,56,0
0.0008650566220808638,0.0016680210855541644,0.14596211554499758,0.19021547823024543,33,22,83,59,0
0.0008499685133105396,0.0017182716089468725,0.14197819508439624,0.18687823224154174,32,24,85,56,0
0.0008068308385439972,0.0017821512116476838,0.13490704262515235,0.1941436093557908,39,33,85,59,0
0.0008720383474615468,0.0017479822881513352,0.1296541596287856,0.18785998714465832,32,24,74,59,0
0.0007911835119025947,0.0017841740066507912,0.11810795941465688,0.1969357880926569,37,26,76,56,0
0.0008676768609437546,0.0019388721996350653,0.13102478070276374,0.20697039801624412,34,28,78,52,0
0.0008195800765274613,0.002174090452277162,0.11875863480197248,0.21838242637202845,33,18,78,50,0
0.0008811752199729297,0.0018735861861332945,0.11950408076924976,0.1919507481426637,32,18,77,45,0
0.0008471524451197436,0.0016108529235402008,0.11287507568239981,0.15026561503084582,30,16,79,52,0
0.0009592372017973612,0.0014012565822439083,0.1386701203504277,0.13388085859905546,30,18,80,49,0
0.0011034395978084368,0.0011372952526263274,0.1819672061269601,0.10304160354385755,30,26,80,55,0
0.0013321571226909974,0.0013860010801013665,0.22934722307177396,0.12859387955439716,32,18,79,56,0
0.0015974700229645145,0.0013770216564191332,0.261758928619126,0.14269801096792717,38,20,80,63,0
0.0016128134610939226,0.001797949703755852,0.24630110657811913,0.1748683217299356,30,16,85,61,0
0.0013897485572479551,0.0017842118446490785,0.2119286302640349,0.1863005448477262,32,20,85,57,0
0.001234566802777483,0.0016916560412423484,0.20073536068047432,0.18388587221018243,32,22,85,58,0
0.001204454592567261,0.0016385374068515171,0.1829528870483826,0.18904379894478834,28,26,82,59,0
0.0010380802892925249,0.0013344294181394335,0.19567910750404777,0.17749050080519116,34,28,85,63,0
0.0009907713738543532,0.0015409979294942566,0.19292535582948211,0.18405623131794185,34,24,92,59,0
0.0010382742190969381,0.001714438043510176,0.19905230092095746,0.1962577805161862,34,20,94,59,0
0.0010294866349010194,0.0016702425782434795,0.19323614648190188,0.18750020430172037,40,24,92,56,0
0.0009113737025129334,0.001593641038662035,0.16285067561200767,0.18125146944382822,34,28,95,53,0
0.0008987539979557901,0.0015852888089764553,0.1578986999162459,0.1691903762570245,38,28,88,55,0
0.0007668672496115714,0.0015647315849706958,0.12855001261469923,0.1592551196097072,36,26,87,49,0
0.0008225623153480178,0.0013642509404139247,0.1384869670704925,0.14704712450101232,36,22,86,58,0
0.0008049914171999669,0.0016047869809483301,0.14417206523644657,0.15285693519988341,42,18,85,58,0
0.0008151142230526251,0.0014261914643417684,0.15260913738182919,0.1480778834978202,44,20,80,60,0
0.0007761068814975061,0.001727384121946364,0.1393116178119552,0.15758005992494467,40,20,82,53,0
0.0008203644424407885,0.0018435280956696717,0.1536152758109936,0.1797569863000144,42,20,85,50,0
0.0007952391173350674,0.001741710694917938,0.14122129058774746,0.1740664489582479,36,24,83,44,0
0.0007866243392656851,0.0015837520873849353,0.14216979213221806,0.16577200261678482,34,24,87,46,0
0.000744111177459123,0.0015518875505464525,0.1407988652826788,0.16041879920772828,44,22,86,56,0
0.0007270924974596589,0.0016211276626772629,0.1255974173926532,0.15369431179396403,36,24,85,55,0
0.0007222540100543934,0.0013641168544254148,0.1232247965036498,0.14706691471681801,44,18,86,58,0
0.0007080923129700123,0.0013361595208069706,0.11535982659099403,0.15054091565019892,38,24,81,63,0
0.0006637466480626179,0.001282583720955146,0.11224964123396072,0.14308280781379373,28,22,84,60,0
0.0006038731997411496,0.0013832588590039674,0.09614559473878878,0.15640397076901852,28,24,87,63,0
0.0006165086637878336,0.0014023286901273392,0.10023675347690525,0.1658795215626769,30,28,86,60,0
0.0006385760271949665,0.001557232580664859,0.10901845753299631,0.17516403072291484,38,26,87,55,0
0.000656754066079364,0.001617521380454816,0.11646114611520963,0.17791340937762404,36,22,92,53,0
0.0006668555009892905,0.0014909265818619385,0.11983102292535888,0.1580024893455133,38,22,95,54,0
0.0006984196717195613,0.0015774195695666502,0.1194077871792563,0.1566396781704011,40,24,94,48,0
0.0006849209527611567,0.001653344672191175,0.10679683795988279,0.16256114917700654,34,24,88,49,0
0.000636797296652079,0.0015221166779123781,0.10441373488598071,0.16145385920297614,42,26,86,49,0
0.0006098493302254169,0.0016565656321760524,0.10274776391468353,0.18042111428556815,36,24,88,41,0
0.0005727143459633959,0.0015591819347983043,0.10296913375358233,0.17392834963725504,40,28,81,49,0
0.0005464278014094593,0.0015559568600087958,0.10318458752176225,0.17703312602453,48,28,88,49,0
0.0012068777750967644,0.0010559145500608099,0.14210350039055764,0.09974266688628122,26,16,75,51,1
0.0012025151849990442,0.0008533811800099651,0.14472747335396985,0.09099515048745581,24,24,77,52,1
0.001086596027082407,0.0008271533538550456,0.1314873257642645,0.09069792879772016,28,20,82,52,1
0.0010436624453032091,0.0007212338619972202,0.13088393357785355,0.07732848917688916,36,22,83,53,1
0.0008292837867036556,0.0008498398299649063,0.12065902305777187,0.08388527011222693,40,24,84,55,1
0.0009323518280226212,0.0009127652152806759,0.13285101341970298,0.08705438333860577,38,14,75,60,1
0.0009604198004012656,0.0009411524847964794,0.14149839067189193,0.08838983437486489,36,18,76,62,1
0.001012869436545845,0.0010336465510676965,0.14952471959914562,0.09618617461626361,36,20,74,62,1
0.0011195629755142123,0.001073243607343505,0.153075999473932,0.09073420895588238,28,22,69,68,1
0.002238800798875637,0.001500028813683718,0.18175017132866259,0.10413090917032176,18,14,71,56,1
0.0022369706035366217,0.0015182925782732213,0.16562525868395736,0.09509670403274725,12,14,67,55,1
0.002118376767835526,0.001280587912522544,0.14517530755458447,0.07864143693330976,10,16,59,53,1
0.0007555367027461509,0.0006076405255597539,0.09012909346622844,0.05780679571378839,22,18,69,62,1
0.0009744211277137702,0.0006519336709249683,0.12436765586697103,0.06541031179034797,32,22,67,58,1
0.001299280886315425,0.0008156930410509297,0.1733072962106832,0.07686122853819102,32,18,66,49,1
0.0013652504208030896,0.0009140908011258138,0.19824972146140973,0.09022700026393504,34,20,71,54,1
0.001607737839180661,0.001339357615407489,0.20869417212576838,0.1098126297051977,28,14,73,54,1
0.0016287068433633854,0.0015448599953045666,0.20356219646817356,0.12103534949710804,28,16,68,48,1
0.001974613626047393,0.001989036628200942,0.21795982092246427,0.14482908863840369,26,14,67,45,1
0.00234696665660216,0.0022244102640736154,0.23914647840991085,0.15877695818303947,26,14,63,46,1
0.0022726203146811053,0.0020405478211515337,0.25234128073708373,0.1595921586908909,26,22,58,46,1
0.0020879641571742843,0.0021217881540302793,0.24171651584606615,0.15669476047440103,18,18,62,53,1
0.0020293250102030595,0.0017996890622871832,0.22138396818372227,0.1510242122664032,18,20,61,48,1
0.001698047044135201,0.0018349681189151782,0.2223983833508554,0.14973355720532958,30,18,70,50,1
0.0017124885310370336,0.0015924959831402762,0.23783391693661798,0.13014636836941604,32,16,75,55,1
0.0018414343749042431,0.001449886385243604,0.2537526949093688,0.12209999830171084,32,16,78,61,1
0.0017535294304460095,0.0014970300620241927,0.253593179535039,0.12982635487213698,36,12,86,54,1
0.0017460999391096627,0.001649793647954274,0.23616613082877352,0.12619516836884678,34,16,81,49,1
0.0018433355743546712,0.0018254419997177742,0.2266361989296571,0.14268151479207553,26,18,77,47,1
0.0022832862617016216,0.001832718710279294,0.24984472346035513,0.14121777348953676,26,16,71,52,1
0.0021988695274120025,0.0016959708583612998,0.240323413286719,0.12822372892367986,20,20,58,53,1
0.0024457254006089854,0.0016155972064736985,0.2736395923192045,0.13838172424132314,24,16,59,52,1
0.002308600556203526,0.0015018411858189987,0.2612543378716706,0.12282310091309344,24,18,49,53,1
0.0023953088201857393,0.0016471440104440806,0.25599582489044326,0.13524357940631684,28,18,50,46,1
0.002212424496558951,0.001393870540408096,0.259361851928189,0.12669848718049323,32,20,51,57,1
0.0017951321984072078,0.001098188582633605,0.21570003031065443,0.10719398414581455,31,24,64,60,1
0.0016845865555314879,0.0012583573353175251,0.20765357127459194,0.12250862568184684,26,16,69,50,1
0.0015572930764498694,0.00113882126388557,0.17702942356224763,0.108756448257009,16,22,73,55,1
0.0011805914886550784,0.0012478406448391893,0.16130029165195925,0.11643741774481646,26,20,77,56,1
0.0013402403928966088,0.001187181916477754,0.15592232252645413,0.11037740044451264,24,22,74,55,1
0.0013364465974662443,0.0011711294036258451,0.15588586222721848,0.10243978108651161,24,18,71,58,1
0.0016454138633404925,0.0012444566583107227,0.17714594322471422,0.1128399492121162,22,20,72,59,1
0.0018568446104414544,0.0011556564596616318,0.19259193829433002,0.1025642523022636,28,16,66,58,1
0.0015899486188880637,0.0010868242385666086,0.19056996833275988,0.10402600901712697,28,16,73,61,1
0.0017331828030350271,0.0010684044323891254,0.20198294293243177,0.1010056997383479,28,20,69,64,1
0.0015837288593326174,0.0008739093637730753,0.1862934022799611,0.09270263019979923,26,28,75,60,1
0.0015319310847281792,0.0010803513634857489,0.17109421438009043,0.09808874143546568,26,22,69,60,1
0.0014819450559448175,0.0009865276099181109,0.18201197432442429,0.0922285141041067,14,24,75,57,1
0.0014424991140261781,0.0009807582417942528,0.1628448204310874,0.09121995010474816,18,26,77,58,1
0.0019090049192259284,0.0005649911961514871,0.3867650398033131,0.07581068899832079,44,28,87,68,2
0.001863684092734024,0.0005686836754735269,0.42914525856950775,0.07851162075039277,48,24,91,73,2
0.0017939678599083065,0.0006019944816642933,0.4260499897356934,0.08088700480388457,52,30,93,70,2
0.0017147483334632415,0.0005932802733583452,0.4087799121981995,0.08043366046710901,44,28,99,68,2
0.0017622149148987395,0.0005423132561885101,0.40724081667453427,0.07354186987755638,44,29,103,70,2
0.0017787642519836412,0.0005339115034362155,0.3687191533678024,0.06955121585237017,38,28,106,72,2
0.0017870974514672471,0.0006443240445118107,0.3616600022117398,0.07409774405465401,40,24,104,64,2
0.0017918010864992897,0.000549955120868516,0.349540722176375,0.06526687421330792,38,26,98,69,2
0.0017173494746500094,0.0006244778118032462,0.31709105067994625,0.06542748946680745,30,26,93,66,2
0.002138051472077671,0.0007893622408169927,0.3540386251799428,0.07990675144605193,30,18,87,58,2
0.0023773901170788176,0.000717026564403016,0.4473608042776332,0.08416372675592941,32,28,91,68,2
0.0025856919175015394,0.0007820258050287159,0.5263284016464079,0.0946249300855654,34,26,92,75,2
0.0027283257361678864,0.0006685716714481796,0.602766965314139,0.09675084838314221,50,38,98,83,2
0.0025450050218826636,0.0007309145172173305,0.6054416671602565,0.10435079770880426,50,32,106,83,2
0.0027081126257648687,0.0007110117867407034,0.5627347453671299,0.10250863637214239,44,36,105,75,2
0.0026511978633456845,0.0006178396266345864,0.5615256428490892,0.0958458961122769,50,36,104,71,2
0.002663499405563061,0.000629056953832986,0.5350200354629767,0.08870511187638465,52,32,104,75,2
0.002658484827213449,0.0005686423768265123,0.5373492933386014,0.07964678934363269,52,26,97,68,2
0.0023329050034527265,0.0006368927358799235,0.4973057613777717,0.07713342129274536,48,28,96,69,2
0.002628875408349955,0.0005998448850518803,0.4721800356734598,0.07957602505881668,38,30,98,73,2
0.0021525282305797063,0.0005973025770783073,0.4555779198461036,0.07501441639204125,44,29,95,70,2
0.0022925062305109954,0.0006125655018096071,0.4490696624957519,0.073553999962025,38,26,99,70,2
0.0021896895339496604,0.000640378642876886,0.4501539674898349,0.07052157007047716,42,27,95,72,2
0.0021141416940488223,0.0006156133531658471,0.4265572180381759,0.0685666934557,40,26,91,62,2
0.002084574865596956,0.0006461471100103218,0.40098219310215094,0.07554148236005123,38,31,89,65,2
0.001854972098390005,0.0005972734809274148,0.3566603337324301,0.06585326612695004,40,30,91,66,2
0.0016883102388710255,0.0005195760357908828,0.3247828752445774,0.061010972781952486,42,29,90,64,2
0.0015452101857145442,0.000525773443667681,0.3046863668732899,0.056021899755178316,48,20,91,76,2
0.0016740067697902739,0.000524678875580505,0.3392334516336441,0.05428915853808013,52,19,93,70,2
0.001870734296355455,0.0005927868234443065,0.3597715062251484,0.05782775111350408,40,18,96,71,2
0.0018687135147756914,0.0005344847849119158,0.37402892687212436,0.06231340927879679,48,25,95,64,2
0.0019235675646609447,0.0005522998076484566,0.38678204825718626,0.06102021622841001,50,24,97,67,2
0.001795441540277924,0.0004806574090039377,0.35534493514777665,0.05870536690048312,54,31,99,72,2
0.0018655941673971,0.0004973903890093258,0.35482764640554254,0.058346358453878346,48,28,96,70,2
0.0018106796686880378,0.0004859339307327572,0.3496838754580459,0.05724913040297567,46,33,100,69,2
0.001628485011499113,0.0005254503504552833,0.33842466468382915,0.0598381020168848,40,24,103,64,2
0.0015356649583364629,0.0006396200884114577,0.31884088341910943,0.06297837981678908,40,25,100,58,2
0.0015000382571554857,0.0005701710035666514,0.31762053049744454,0.06467391053271816,36,22,98,59,2
0.00160015629739928,0.0005664625739345765,0.3399005075431436,0.06346578125743604,36,29,92,64,2
0.0016120432426367695,0.0005598876622969993,0.331281501287028,0.06536533063844643,36,32,89,61,2
0.0016534737174502335,0.0005446631060903515,0.3418508180350469,0.06273145191397808,40,23,89,63,2
0.001620300370874587,0.0005381659274839911,0.33297573789709706,0.06093484970922062,42,24,88,63,2
0.0014062795301539967,0.0005384361208407218,0.28937169959320075,0.05961572921416523,44,21,90,67,2
0.0014010701892540234,0.0004826002148781767,0.30286631405145337,0.05910513123115762,44,28,88,64,2
0.0014438773196147484,0.0004996825098288306,0.3067834054553817,0.05869586587743873,56,31,93,71,2
0.0014526003415335695,0.0004599302876409896,0.28161570951615417,0.0555172577163963,40,26,92,70,2
0.0016371100677594443,0.0004935393476832002,0.32868830449906816,0.060603386315258786,46,26,86,64,2
0.0016028509035562754,0.00046238058426947365,0.3247656411717314,0.0563294744334212,48,22,93,63,2
0.001588165677360841,0.00046985484264279237,0.31317537315453514,0.05759376351160679,42,26,93,73,2
0.000649317352026189,0.001832645975357704,0.08254381098131756,0.21253276717406538,34,24,79,61,3
0.0006528974823328035,0.0017849205967106665,0.08699203192414413,0.21317031138488382,31,24,83,59,3
0.0006398345068562081,0.0014938448145885325,0.08958610803151378,0.18551861586997867,28,28,82,68,3
0.000690820683840625,0.0014234358893506242,0.09103823301537979,0.1905546191144385,27,26,76,67,3
0.0006044740688583498,0.0011379917265094924,0.0821527498481566,0.1738569567915978,22,34,78,71,3
0.0006015763078496561,0.0010786363389626702,0.08030704051619088,0.15594032518131365,27,36,68,73,3
0.0006021978415979844,0.0011213072926688496,0.07189181705443493,0.15295007463474836,28,38,70,66,3
0.0006373314681522115,0.0011848320672317955,0.06679180807851035,0.15694989146539062,29,36,65,64,3
0.00063457645429666,0.001373465363518271,0.07416243313178719,0.17357431917438626,34,34,60,53,3
0.0008198385991434485,0.0014429336419993575,0.07494368053076152,0.16378330205803088,24,30,56,55,3
0.0008381505075518916,0.0015801493710729097,0.07397725828352479,0.16516136896169267,18,24,69,50,3
0.0008789461478956517,0.0020486886170838726,0.07074429989197008,0.18529322555656186,14,20,63,50,3
0.0005673029483758288,0.0022125506751764544,0.05891790310695516,0.194407677290728,20,20,71,45,3
0.0007068472234826576,0.003017521193080412,0.07252262106106246,0.24976361825505347,22,18,76,50,3
0.0006965776202420987,0.0030478097698973146,0.08512566965625244,0.29736430856316765,26,22,74,56,3
0.0007304491793976145,0.002675342050107911,0.09653903959578766,0.3002735088351203,36,22,75,69,3
0.000843464189425926,0.0027644031390585866,0.11449283054643657,0.3099388985617759,24,22,74,61,3
0.0008580427993491037,0.002592452907181515,0.1193898373001415,0.3247445353082541,28,28,77,59,3
0.0008890821607903958,0.002771442483408293,0.1181591944296045,0.34011910813210644,26,26,78,57,3
0.000875498093034784,0.00290795637688616,0.11580701852013059,0.34031461023618204,30,26,80,58,3
0.0007217500869949267,0.0030003258540581817,0.1034654552675755,0.3540065644338254,28,20,85,61,3
0.0006844104786268346,0.0027850694453734836,0.10498503701538692,0.3364719341367912,34,24,82,61,3
0.0007449854308882772,0.002649404002844314,0.10551321239228717,0.3158606353120056,28,22,74,61,3
0.0007405190497116597,0.0023394098020569176,0.10767871113815429,0.30096251704621174,38,34,71,59,3
0.0007503168235026869,0.0022090474642258834,0.107847557006661,0.2765268979592394,30,30,70,63,3
0.0007842733116608714,0.0023067998335591687,0.10579224616471675,0.2621598985490893,30,30,68,56,3
0.0006887029269877715,0.0023101677995458307,0.10092122533970885,0.26474297342785086,30,26,72,57,3
0.0006910515959980551,0.002381270636264453,0.09984276149009041,0.2722233848278901,34,24,74,56,3
0.0006783586222450778,0.002140951317593204,0.09355502873301587,0.24889823244162407,34,26,72,59,3
0.0006525606960861223,0.002021789378086917,0.0889763150343071,0.24892462397433945,36,30,72,63,3
0.0006634628452779874,0.001959314262911102,0.09133433709371773,0.2615111798095734,34,28,74,63,3
0.0006356626799012664,0.002069519045383243,0.09044690862073593,0.2660747804985247,36,26,68,64,3
0.0006428929848483566,0.00230839585759162,0.08785793491513824,0.2916019122573648,30,26,73,61,3
0.0005943561385800967,0.0022773441240781954,0.08267441873940495,0.2826887415195206,33,30,73,59,3
0.000571504491632777,0.002114700826590515,0.07708821296385089,0.2479033602257788,36,22,72,55,3
0.0005974411744637882,0.0020892592682359035,0.07183600534558068,0.23369486500529188,30,22,75,55,3
0.000574709320629372,0.001815023278791596,0.07326001697173658,0.2179298607283745,26,24,74,63,3
0.0005922574234556665,0.0019137512120543636,0.06978065014573415,0.228403025586151,31,30,73,66,3
0.0006573914110319953,0.0019478933555645897,0.07150862911328015,0.23039461710976428,26,28,76,68,3
0.0006184782481347154,0.001981009816017313,0.07333161858508641,0.2288711457925188,27,32,78,67,3
0.0006085747121720269,0.0017653041489562005,0.06938358174758295,0.20750446705029937,30,24,76,72,3
0.0005909134915841418,0.0017737751067793395,0.07401887924458787,0.21707126148124134,31,27,78,66,3
0.0006881653088024067,0.002204917345599235,0.07645939998445787,0.26754966033543,32,24,73,57,3
0.0008045218915671682,0.002543042584496017,0.08995574685989376,0.30712732063527326,28,24,66,56,3
0.0007688377223255647,0.0028667291725819207,0.09136100456766941,0.3443360014624306,32,26,64,54,3
0.0007170257263076848,0.0027619695816781327,0.08910531164640725,0.3472750621497784,34,32,69,57,3
0.000724209149111325,0.0025048913589386605,0.08764591983213055,0.3260260797584917,26,34,70,64,3
0.0006323454073890229,0.0023620531273982085,0.07056982424621594,0.30728678242661206,24,34,78,68,3
0.0005968348606071705,0.0026147451376212806,0.07009420719974259,0.305050123516636,20,38,77,69,3
0.0002269364554462417,0.00017355218031939597,0.017031711815530832,0.01356662424073621,20,20,32,36,4
0.00022302729203541497,0.00017558459835647993,0.016892163105327554,0.01362308506829196,20,18,28,36,4
0.00022323172458356947,0.00017787444417588185,0.016883136253138347,0.013578358032218135,20,18,34,36,4
0.0002231600700418506,0.0001742458923017477,0.01662542063721774,0.01328374015510943,20,22,32,31,4
0.00022589515504678841,0.0001699075806249359,0.016501131213280385,0.013271584809929038,18,22,34,36,4
0.00022982202570060034,0.00017172452397213936,0.01649450845488922,0.013606466731633257,20,20,28,42,4
0.00022919507120200457,0.00016649648071412167,0.016719569426376084,0.012967686898904159,18,20,24,40,4
0.00023185515946073327,0.0001698188061927672,0.01723778414934192,0.012548778947752104,21,20,24,42,4
0.0002295673873405437,0.0001715305912748205,0.017132163432883037,0.012723660467561803,18,24,24,38,4
0.0002279272400396477,0.00017422534451933745,0.01723191486980132,0.013424097846471469,21,20,28,38,4
0.00022849098782220804,0.00017892078998113165,0.017022313110532837,0.013802117252427477,18,20,26,44,4
0.00022728194884417575,0.00017575321891116796,0.016652473432445608,0.013571142239060268,21,18,24,44,4
0.0002282311648808198,0.00017690992668441995,0.0165402329200238,0.01341874054821285,18,18,22,47,4
0.00022390691238876882,0.00017312484286994415,0.016435862401821433,0.012690912543009058,21,20,24,46,4
0.00022384710762948182,0.0001682437277466023,0.016643202391478148,0.012861536322938315,20,20,24,34,4
0.00022237848942677503,0.00016753005345511256,0.016799532260693386,0.0131054472304552,21,20,24,36,4
0.0002276129261535727,0.00017151872535689256,0.016991798942981383,0.013491088074322465,18,18,22,35,4
0.00022675704187599482,0.0001728350140045618,0.01701946592856262,0.013751694274992052,21,20,24,32,4
0.000626335719240287,0.0003204478208096268,0.033489916446705514,0.02298893199645545,10,12,57,36,4
0.0008781614424212207,0.0005525902990954839,0.045041321682200965,0.0384908162371509,5,11,43,41,4
0.001043742925649409,0.0006176039173064483,0.05666899518264177,0.04267119665463996,10,14,37,41,4
0.0006578271892374963,0.0005379700010349584,0.04566959077625956,0.03967883746709866,21,16,49,41,4
0.0006432309190349608,0.0004573630062862682,0.05259869853399252,0.03354504468013199,18,16,61,38,4
0.0005215264403703824,0.0003674624603852643,0.04624039074238372,0.02288466013530207,18,15,58,36,4
0.00047415237766241006,0.000342477768668691,0.04154654119353494,0.021259622419132353,20,16,52,34,4
0.0004025867933048008,0.0003160230344735216,0.03334215476096622,0.01994798604024645,22,18,48,35,4
0.0004289048586708942,0.00030020394588446757,0.0249090477166865,0.019154370498790534,16,20,36,28,4
0.00039563061842058824,0.0003011414398697914,0.023936073407070987,0.018947456116179172,18,20,38,30,4
0.00038846383005270905,0.0002982165769687662,0.022703314366465173,0.01837618179836942,16,18,30,32,4
0.0003547849850455065,0.00028486434522917567,0.02203426841684865,0.018328981487302273,18,20,26,28,4
0.0003580717457208595,0.0002842334831499772,0.021439950459255973,0.018222317185358952,18,18,24,26,4
0.00033339285837718146,0.00028547190957681527,0.021047812904443203,0.018153482814316436,20,18,22,34,4
0.00033717125327045245,0.00029019496317002553,0.02092231623541163,0.017854250452980034,18,18,26,32,4
0.0003292438670476545,0.000289374145390226,0.02066051214353151,0.018099740455530745,18,18,24,34,4
0.00032694962246775637,0.0002767561656315741,0.02075868522091204,0.017805082957779116,18,22,30,32,4
0.0003215078111749521,0.0002780960956275784,0.020838686243204726,0.01718438626183447,20,18,24,32,4
0.0003184880496941559,0.00027348214825625945,0.020703718697673394,0.017169200710487456,18,18,26,32,4
0.00031689159547622955,0.00027413126141624634,0.02047217927405311,0.0166674075663184,18,18,26,28,4
0.0003110238973685583,0.0002601341636762508,0.020288220636171608,0.016380296490837276,18,18,32,28,4
0.0003102581434977796,0.0002620058714046242,0.019790346536964883,0.016699715599761803,18,18,36,32,4
0.00030908264607971877,0.00026395288694187934,0.019495593328973555,0.01680818267302684,18,20,38,30,4
0.00030282665935418043,0.0002563770069802045,0.019436586951651864,0.016734386912782145,20,20,32,30,4
0.0003084100398208523,0.00026609963015262355,0.019548550023239252,0.017105474740988176,18,20,22,34,4
0.0003052174545340775,0.0002679277709044027,0.01973153098359312,0.017207885361533646,20,18,24,32,4
0.00030723424788840466,0.00026816493566890454,0.020044866404396334,0.016959005388897247,18,18,26,26,4
0.0003076333991925836,0.00026774793081026717,0.019815798856581433,0.0173299884093791,20,22,28,34,4
0.0003027568721962807,0.0002704362836500227,0.01995633281350279,0.017352222870848248,20,18,22,30,4
0.00030161388164614536,0.0002697882441915178,0.020079988854651787,0.01721841425931634,20,18,22,30,4
0.00030455005861557507,0.00027281357106564747,0.019907445870195828,0.016772383134711456,18,18,22,24,4
0.0011190986978561936,0.001520129159178514,0.20143567003824994,0.15414373047170127,49,22,85,56,0
0.001076815428633619,0.001424384655603025,0.1986905284003361,0.14211452389008397,42,18,89,63,0
0.001159226090126596,0.0013175876013755514,0.19537269618877262,0.1407507712183802,40,20,86,64,0
0.0011410843390807768,0.0013164974956018953,0.19708086775182593,0.1375375053378431,40,20,84,68,0
0.0011196095942071424,0.0012742445684934167,0.1804086749148401,0.13736269839303464,28,24,80,68,0
0.0010362955202294969,0.0012839165206171995,0.16858188570342028,0.15111786417194192,36,24,77,67,0
0.0011347687981940967,0.0015388862781236618,0.18047117681135225,0.1684807308806527,37,20,80,65,0
0.001107150256580546,0.00162792871558753,0.16629837164107547,0.17627624318242086,34,20,77,55,0
0.0010610025784828171,0.0016025639259695454,0.1751342404488501,0.17531991523663137,42,22,82,56,0
0.000983477400049883,0.0016543151528746402,0.17371905553661707,0.17004354063098703,38,24,87,59,0
0.0010122220721827868,0.0018713706038487289,0.17761464191220613,0.16795711528668475,44,24,85,54,0
0.0010214559167328616,0.002216629003869001,0.18004386746925424,0.15963709513284138,38,20,79,58,0
0.0011710583692089113,0.002209005915092085,0.20341591943618592,0.16262193919538276,38,22,79,54,0
0.0010859237963490463,0.0024271499631904267,0.19171448296884608,0.1832931007373927,34,20,80,56,0
0.001110094123478346,0.002263939612913494,0.19648374238141622,0.18650309224477354,30,18,83,57,0
0.0010541143823912611,0.0019107953337569221,0.186394004780805,0.2056625288337925,26,24,94,53,0
0.0009810413137300977,0.001776443841545551,0.17029922141206785,0.20536569909626215,30,30,92,58,0
0.00103279266922117,0.00182374864911749,0.168087685546185,0.1885810352409266,26,24,89,49,0
0.0009260526771725383,0.0016866221882691093,0.14022427080058214,0.18747454133388325,31,20,84,53,0
0.000894004888048763,0.0018068376801163837,0.13715087726368755,0.1990063688765896,40,18,82,53,0
0.0007672382019216173,0.0017921224780663735,0.11907364819713374,0.20072736817326642,42,24,84,54,0
0.0007760340182470099,0.0017136726240651648,0.12948552686616624,0.21231389078955035,38,26,88,53,0
0.0008174391070464329,0.0018264506268194263,0.13480886866553415,0.22983181640972458,35,28,90,52,0
0.0008033952068166269,0.0015856309259789144,0.13914539356201053,0.1957289650548224,32,24,95,54,0
0.001986115132985342,0.002038616158258016,0.263006239521136,0.173314448742925,32,22,76,42,1
0.0021872797787460337,0.0021803411893604064,0.2660639184871243,0.1792928292141344,30,18,70,53,1
0.002423845346948743,0.0019817546237160563,0.29366248049319943,0.17620836236370735,32,24,72,51,1
0.0021766340804872534,0.0020455142228481276,0.2821558917203648,0.17302932084344788,32,26,78,53,1
0.0023565559999106536,0.0014895374581604967,0.300538348196793,0.14621643496159373,32,26,75,67,1
0.0022585257344582485,0.0015908637363633233,0.30578730971065954,0.13587079713762698,28,16,78,61,1
0.0019202145009604183,0.001423640723587267,0.27836583767093315,0.13358644968483915,32,20,72,66,1
0.002132774216277894,0.0012073598123025842,0.2875623858457243,0.11967799157286854,28,18,68,67,1
0.001816554010337805,0.0013449310181492624,0.2529932750883229,0.12620727339774504,30,18,68,64,1
0.0015689473533537746,0.0011752118467712603,0.22617815755282292,0.1297366642257169,34,26,69,63,1
0.0015723366575813354,0.0012006352279592056,0.20408188808836442,0.12016463014213488,34,22,73,63,1
0.0015471147554539275,0.0011700561391406574,0.19673892947147073,0.11869252513019156,32,20,71,66,1
0.001496315157531847,0.0011384224164455619,0.19446185990443562,0.11974034089169353,26,24,72,62,1
0.0013538570615824086,0.0011143675029051797,0.18448275280814286,0.10717269778864741,28,18,77,54,1
0.0012339133753812787,0.0010684196976786754,0.17550065599885464,0.10414175283608385,34,20,85,49,1
0.0011564383415124681,0.0012440593370296631,0.16830504499585516,0.10535687569322146,28,18,84,59,1
0.0011784829037934403,0.0009541830428327764,0.1658308090142012,0.08795446199699254,30,20,78,63,1
0.0012119184258684965,0.0012428384436505946,0.16669848805067292,0.10317306117157354,28,15,75,52,1
0.001217380372564586,0.0013840881707286362,0.1583342506495143,0.10791709028639108,30,14,70,54,1
0.0011029534329304843,0.0011898199008531336,0.14947864310223463,0.09660359595867904,26,20,73,55,1
0.0010707755163648438,0.0012617803323596815,0.13037495201944954,0.0963908724900879,26,18,78,50,1
0.0010396887618419424,0.0013292781840263522,0.11973300598284589,0.09163774655413513,26,20,78,50,1
0.000989206881578365,0.0011758419783340556,0.12930558902983516,0.08614079911150345,24,16,77,51,1
0.0010272255429047187,0.0012076474250590004,0.12191029493539401,0.10097170104759581,30,16,71,50,1
0.0024247030614051902,0.000507531833580314,0.4927388764505595,0.07511870392583014,50,40,88,76,2
0.002417481514509197,0.0005120752639504368,0.49496602578192145,0.07543538199504696,46,36,91,77,2
0.002455681699791796,0.0005657742559484781,0.5194095624106979,0.08429302768944454,50,32,98,78,2
0.0025491500708312363,0.000563809245809085,0.5256530716138662,0.08335075626398444,44,30,92,77,2
0.002806882110146754,0.0007027083138292909,0.5549205177534916,0.08397702323824785,44,20,96,78,2
0.0027944843568354504,0.0006354368575412034,0.5554011799645344,0.08336076796681913,38,22,97,76,2
0.0026681813417562387,0.0006817712691545129,0.5200272922335625,0.0829393136517967,36,24,94,68,2
0.002563188854778892,0.0007276925648971078,0.502581834732731,0.07984896380814774,34,22,101,74,2
0.0024910770199762216,0.0006266076180290052,0.46498465362466385,0.07565864102759498,42,28,93,75,2
0.002236057588560179,0.0006627098186128521,0.4526345423251867,0.07951714181740872,46,22,94,76,2
0.0020811494781279483,0.0005815580208892214,0.41837567575624984,0.07431635770700012,44,28,96,73,2
0.002227352761162249,0.0006262006019440204,0.42582182366953203,0.07878710054477951,42,26,92,70,2
0.0023041942529269527,0.0006862683452710986,0.4452193812964526,0.0830790120988318,44,24,95,72,2
0.0022555495390855092,0.0006997650211330408,0.4337206902228151,0.07992040034895255,40,26,90,66,2
0.002304244939897675,0.0006822394785066397,0.43928038880398285,0.07769541162358834,42,30,86,67,2
0.0020731008853017213,0.0006263012387383977,0.38941281581324866,0.07162124521746897,42,28,83,67,2
0.0016958933595927492,0.000566323484097642,0.3348175427876718,0.0655284944150805,46,26,81,68,2
0.0017248407050282771,0.0005942618667425869,0.33555699445701676,0.07043569907852246,50,26,87,67,2
0.0018077982618947023,0.0005613440403165155,0.35747876832550246,0.07111222810174757,50,30,92,61,2
0.0017213370767967888,0.0005542671405813534,0.3662876858117412,0.07406153245947224,52,30,98,66,2
0.0017773653180225646,0.0005581952074597714,0.39005738414395036,0.07781748624831206,50,30,100,67,2
0.0017750156227496583,0.0005588391829289514,0.3991447463202465,0.07244153885777944,50,26,96,63,2
0.0017977542339548266,0.0005382095124120034,0.38573485116457124,0.06998588011031665,46,30,88,66,2
0.0018690463867318732,0.000575726899717957,0.399251856959633,0.07285247183348714,48,26,89,65,2
0.000796553301971023,0.002698412197342302,0.11175243680810494,0.31729704968069355,30,26,79,62,3
0.0008189940263131476,0.002688876809251714,0.10638275427540558,0.27677521209314065,32,22,74,58,3
0.0008617774946934897,0.0027257107690400744,0.1095726654420569,0.31331287726211166,30,24,71,62,3
0.0008210230540731631,0.0029766191161595414,0.10165578341694312,0.31087950422152794,25,22,70,62,3
0.0008368216044381516,0.0030118737143386537,0.10723100866816085,0.30187211694677546,26,18,75,63,3
0.0008172224864560152,0.002650179260075031,0.11058041887530161,0.2991823753550811,26,20,66,62,3
0.0007806437850023846,0.0024243708650903586,0.11225443849784889,0.2706318145056578,26,26,72,61,3
0.0008452894263705579,0.0018190887137028275,0.11826526222518825,0.23745181772055296,29,30,76,64,3
0.0007668181561495061,0.001913162315424242,0.09909269759222183,0.22984648809272698,28,30,74,63,3
0.0007209933334154938,0.0020300436713308356,0.09600587341013977,0.23521967803887087,31,34,78,66,3
0.0006866731725271401,0.0018277837513137481,0.09231932259582491,0.22159000557574624,32,32,71,63,3
0.0007757729321272148,0.0019885428570013937,0.08457456461841144,0.22965526531287916,31,33,68,63,3
0.0007404857495286094,0.002072027551519342,0.08441801750197675,0.2460896364405212,26,28,71,66,3
0.0006775085752992584,0.002045932892497987,0.08135296224401892,0.25463499174855714,25,30,74,70,3
0.0006151476825100378,0.0021467367315585787,0.07852826254709948,0.27033974553115797,24,28,71,68,3
0.0006743802661742571,0.001993447398745121,0.08006409497842185,0.2560590373716776,19,28,73,72,3
0.0006773732294097703,0.001957959964845107,0.0859161033711413,0.2543266837229907,16,30,72,66,3
0.0006588580609319622,0.0017377967089343943,0.08403290937941764,0.2325816222887312,21,34,73,65,3
0.0007515442341323136,0.0017761643681351701,0.0874426109132795,0.2272443544005625,22,26,73,70,3
0.0007107377312951732,0.0017634315556842794,0.0854077466439975,0.2412417181888574,25,28,81,62,3
0.0006225725723700485,0.0016796618788224413,0.08219071703410404,0.2182994982641775,20,24,72,67,3
0.0005935224197757808,0.0017398541448389031,0.0836528290402246,0.21358670586130774,31,22,76,63,3
0.0006040790928805819,0.001899193605935035,0.07602531199533583,0.21587346461934942,26,20,76,62,3
0.0005882883505372832,0.0015636563619044368,0.08025479183765574,0.19142924760387744,32,26,77,62,3
0.00032464883525956846,0.0002779740719533106,0.02025156566153168,0.017792198933219868,17,23,26,32,4
0.00033053507264603217,0.0002802093358245918,0.02042321920419019,0.018407258846885547,18,18,24,33,4
0.00032603781192260374,0.0002880762389800528,0.02035874637447005,0.018407811619886087,17,19,30,30,4
0.0003283042783154292,0.0002731644531503768,0.020481197776425215,0.018880021095353382,18,20,26,38,4
0.00032438722249621707,0.0002848173261843333,0.019733569432899136,0.0187033473551744,17,25,22,32,4
0.0003313057866248662,0.00030150903138592336,0.019767110832229297,0.018525483170727552,18,18,24,36,4
0.00032860400361902373,0.00028072241166269516,0.019517906250327594,0.018613924572686524,16,19,24,32,4
0.00031942998121690594,0.0002703728874573834,0.01937580204209715,0.017980650046032165,18,18,24,24,4
0.0003239692169099113,0.0002727081221755306,0.019349678948936296,0.018417697482134825,16,24,26,32,4
0.00031296096354749156,0.00026469236650072096,0.019113202632715917,0.017362269787859964,20,18,26,32,4
0.002872546131846767,0.0016456152341032732,0.15957793425916147,0.0852812649492239,3,3,102,83,4
0.003083623189277514,0.0017492458958730639,0.1640108008332101,0.08729164227679051,4,4,100,72,4
0.003974136509612006,0.0019374551499635418,0.2063979870618972,0.09684932517263665,6,6,80,67,4
0.003817405276732752,0.0018757152824463122,0.20002766092018384,0.0962143857605202,6,6,72,68,4
0.0012137453898229341,0.0005269194233058421,0.06436460950322587,0.03452851557640918,4,14,75,50,4
0.00030104939503957127,0.00033469693384511576,0.021449100787648466,0.028432978042601514,18,20,46,54,4
0.0002874935505519796,0.00030002685241828554,0.020152090903443824,0.02409026106343842,20,22,30,51,4
0.00027078001431628555,0.00024946236541669326,0.019198303617354577,0.020504148783153625,18,16,28,46,4
0.0002561911676413348,0.00019650232347653867,0.01833152797714679,0.01711726066317872,18,18,36,39,4
0.0002481285474723666,0.00019475330260454676,0.018005020327767848,0.01685284676775011,18,22,28,38,4
0.00024197224220981245,0.0001863375078552267,0.017780034443827017,0.0157140595105646,20,22,32,34,4
0.00023529567810633628,0.0001827298079776746,0.01755498805945088,0.014910319121095477,18,22,36,36,4
0.00023319826166067227,0.00018441307555642117,0.017294089585150576,0.01505350842047158,20,26,36,39,4
0.0002303277955158382,0.00017671233610153727,0.017393734784292004,0.013745100796672944,20,20,32,34,4
