f1ch1,f1ch2,f2ch1,f2ch2,f3ch1,f3ch2,f4ch1,f4ch2,Category
0.0004620057331460974,0.0017159609422624455,0.07561801650113381,0.22401621757248957,38,28,72,57,0
0.000513508388640218,0.001796657216846006,0.08505257663769464,0.21874248030396964,36,26,72,57,0
0.0005310028411944658,0.0019221109009218609,0.08936556006804364,0.23102419737991978,40,22,71,56,0
0.0005541551850241149,0.0018710097166309912,0.09168079952810246,0.23172173694471865,42,26,76,54,0
0.0006325711351222499,0.0019219135107909546,0.09991402781593327,0.22272201327188054,34,24,80,50,0
0.0005706241994077855,0.0017987738090850152,0.09154904993156432,0.22705883876150101,36,26,81,54,0
0.0005848460578429417,0.0016839540008344268,0.08496648564804328,0.2208992772076173,36,28,77,57,0
0.0005548594970021982,0.0016642939862751033,0.08213354037006144,0.2189044667236954,34,30,79,58,0
0.0005334737850338087,0.0016951781467387803,0.07798471995552071,0.2158819142083918,40,30,80,58,0
0.0005398730464694654,0.0017479215203766115,0.08181700517931423,0.20602492454488952,38,28,74,57,0
0.0005397518592596555,0.0017633015577270808,0.08741203412982751,0.2142446143774229,38,34,72,55,0
0.0005302112476425616,0.0016315817037532094,0.08699847210695251,0.20345747659360208,36,32,70,57,0
0.0005372699936168385,0.0018727214261666921,0.08575070292918606,0.21647685895464597,38,32,66,53,0
0.0005601558951064772,0.0016475876047509427,0.08913877570424011,0.2159263847741383,34,34,69,59,0
0.0006115952707805468,0.0018676825493413151,0.08733314246079298,0.21644532353680518,28,26,70,62,0
0.0005859415526535179,0.0018867581363800523,0.08843602850723815,0.21869642678705872,36,22,69,56,0
0.0005846747256560345,0.0018900229666412123,0.0908278192381941,0.21186091555628847,38,22,76,52,0
0.0005376354316482992,0.001893226274156412,0.08605794220142697,0.1989451957783787,40,24,77,55,0
0.00048559147251664875,0.0017026803244547667,0.08115890859926098,0.18708033392716725,40,28,80,53,0
0.0005691166637057661,0.0016372041587805065,0.08817984777197703,0.18712412975008835,30,28,87,59,0
0.0005802276998579665,0.0015191627524996,0.09127654552406451,0.18930535134678864,32,30,80,56,0
0.0005741794999723901,0.0016797562962904131,0.08708843081441121,0.19739531760317183,30,26,83,53,0
0.0006015467001005973,0.001615007291691163,0.09215630395108765,0.19873703263912848,36,30,72,57,0
0.000490913847119188,0.0018870423345055069,0.08214008069706857,0.21040322124206606,40,24,73,57,0
0.0005247657590202842,0.0022653125669999095,0.08392844778090594,0.22569191392326832,36,24,67,59,0
0.0005774395642368185,0.002197474180284994,0.0901060158271412,0.22444233151223622,34,22,66,59,0
0.0005865012862865709,0.002161488013475955,0.09543538609353903,0.2423771189296364,28,30,62,58,0
0.0006383917285975226,0.0018844953683216379,0.10493159214148669,0.23446063130529993,34,28,68,61,0
0.0005826001026184332,0.0016746839420045422,0.1037109874100094,0.21545825089316795,34,30,70,52,0
0.0005528521024920279,0.0017049874365698712,0.09627681032036636,0.21776280116404642,32,28,73,53,0
0.000533156896028681,0.0017323533450375617,0.0887436458463212,0.20100765347500144,34,28,67,51,0
0.0005178524066913672,0.0016359002306056095,0.07684624704043695,0.19292775355827904,32,24,75,48,0
0.00046656824893014076,0.0014491934869999008,0.06831854904357114,0.17137606688023857,32,22,72,54,0
0.00046372748428047,0.001304669818907434,0.06978602355614114,0.15589906018683072,32,24,76,63,0
0.00046354593792647064,0.0012317525322155852,0.07086381322291799,0.14018332276938916,32,22,72,62,0
0.0004552058031555753,0.0015604928348503324,0.07181608945933976,0.17246940362251165,34,22,67,57,0
0.00045658889731773673,0.0015989436862886028,0.07493525206630973,0.18534068438615325,38,24,71,57,0
0.0004953172010321989,0.001989345710220145,0.07811350448474062,0.22840274650295198,34,24,68,52,0
0.00046094541006981197,0.0017956691724186472,0.06970710405397512,0.2227158560573264,36,32,69,56,0
0.0005646116722537474,0.0016775703430902855,0.07906429879965755,0.2116190436913048,28,28,64,57,0
0.0006328043304861162,0.0017834309982917556,0.08183048507995604,0.23508530284184234,26,36,60,57,0
0.0007149557101468314,0.0019451567436297803,0.0917130357677217,0.24997371043553554,22,30,57,52,0
0.0007739953952573963,0.0022364304508894397,0.09583210781458427,0.2856745697470327,30,32,58,56,0
0.000663936375922142,0.002077644654197727,0.0900920978155977,0.2912588384578755,34,34,68,55,0
0.0006941380450682949,0.002187850899658137,0.0970163907408792,0.2932770298218427,26,26,73,55,0
0.0006651601407834158,0.0018341336556400231,0.0987955716075185,0.26544103251769996,30,34,80,63,0
0.0007288917867484064,0.0017675032655648027,0.10582461447722627,0.2722370065979555,34,34,75,65,0
0.000796637705921199,0.0018299706299270773,0.11060493898233695,0.28658607429016125,24,34,68,63,0
0.0011227057068972717,0.0013101500073308516,0.12553169940254255,0.15086469869936076,22,26,63,60,1
0.001343176623364343,0.0016273529701696485,0.14987918183885526,0.19380100730793043,24,26,65,54,1
0.0012844463651780868,0.0018360785757819851,0.14693443524716643,0.2250680842589872,34,24,65,51,1
0.001116924014072959,0.0018222383199263136,0.13627384504054454,0.2266759340873389,32,26,69,52,1
0.0010349198508719112,0.0017757720584004421,0.13969674395077178,0.22178663623996112,34,24,70,52,1
0.0011641689500964413,0.0017585996190448805,0.15342500447919102,0.23235799450233052,30,24,73,55,1
0.0011761342632862148,0.0017601491021677948,0.15410701724329287,0.22740251050266333,28,18,65,56,1
0.0011029494782555341,0.0017810468664295129,0.14543207380078124,0.21557860061276105,34,26,69,57,1
0.001069034763770208,0.0016217687641254797,0.1366203689312136,0.19954436610682835,36,26,65,57,1
0.001000130464503141,0.0015453463778356054,0.12587951308426457,0.19187096888379185,26,26,65,52,1
0.0008798396902914584,0.0015082361294774078,0.11522500264661038,0.16860281258873258,26,28,69,57,1
0.000962334403286553,0.0015611821617899347,0.12385530752945895,0.18167343651788445,24,26,68,54,1
0.0009902272213644795,0.0015126861004469052,0.12876152009418124,0.18533588479639618,24,28,72,64,1
0.0009180982575399997,0.0013577465271601497,0.11556692273866205,0.17212773065728545,26,30,70,58,1
0.0009226954668240747,0.001445150975505452,0.11299201731922703,0.18817765050478835,28,26,70,59,1
0.0008081619371439466,0.0014331833101671942,0.10976941123846919,0.19007151200011288,32,24,74,63,1
0.0007550700754104484,0.0014860195752230505,0.11155555313646497,0.18995970387230351,38,26,76,57,1
0.0008212324822766794,0.0014939263869637618,0.11933695178589258,0.20407342476704193,44,26,78,57,1
0.0008660540601475844,0.0015455784973548597,0.12454187890185883,0.19354164927036357,40,24,77,57,1
0.0008813581652743159,0.0018894797337572252,0.12057398111932875,0.22881145956131646,32,26,76,54,1
0.0009605845990124239,0.0019086693193967046,0.12964546744830502,0.23285931872465523,34,20,63,55,1
0.0009991136931583038,0.0019018251855702308,0.12479563358613352,0.22023016218175884,32,24,62,60,1
0.0009535497881938738,0.0016766952744581383,0.12070162118916251,0.21841351626315555,32,26,68,61,1
0.0008453776014030412,0.001510315660700299,0.11758194361911987,0.17922064701033572,36,24,69,63,1
0.0007390484350481505,0.0014130354395059256,0.1013786585234924,0.1742028773390767,32,22,72,60,1
0.0007659128823271487,0.0015308459735617716,0.09984095130670453,0.16672146010873803,28,20,77,58,1
0.0007585819424371362,0.001374622051507707,0.09622063881569735,0.15395605917527885,28,22,74,56,1
0.000704074738678408,0.0014129012831562058,0.08716160717072777,0.1428517645864007,28,24,72,56,1
0.0007817586200180021,0.001456320453303192,0.09569998897575972,0.17542036303940722,22,26,75,59,1
0.0008659941584542803,0.0015013908896627575,0.09616303958455544,0.18020067065526962,20,20,64,55,1
0.0008022956962135277,0.0015029750206868213,0.09143850083016629,0.1849964520088236,22,24,70,49,1
0.0007319587389703546,0.0013104598602876915,0.08506458417748054,0.16164779815137303,22,20,71,58,1
0.0006062798305646217,0.0008722043316757404,0.06611672321403456,0.10575226143170559,22,18,67,55,1
0.0005110719105050741,0.0007840316757751597,0.05505031488323009,0.095213857926803,36,22,61,61,1
0.0005456758131217054,0.0009078111198939262,0.052053556277967955,0.104633904141783,24,18,61,60,1
0.0006081107430126681,0.001271701802226894,0.06373040990654802,0.13715467482675356,28,14,54,57,1
0.0007271996561292886,0.0015898756834118622,0.07221720874916177,0.17184389002060457,26,18,56,51,1
0.0007332677803774401,0.0015554055802988504,0.0740621071891,0.1630471372075038,26,18,47,45,1
0.0006721118025790413,0.0013381882383069433,0.07000687249612628,0.14398435334929438,26,18,55,45,1
0.000681559150211775,0.0011997160815443485,0.07114660807725764,0.13358900154716896,26,18,63,48,1
0.0006814912526679634,0.0009849664286332603,0.07579706586672759,0.10843506052590439,26,22,66,53,1
0.0006709929261683189,0.0010741748084697033,0.08305695090488524,0.1168031277003794,26,22,66,59,1
0.0007931624042480617,0.0011802028753535889,0.09660169887286621,0.13871140030993795,26,18,63,57,1
0.0007336619771895459,0.0011571113752116757,0.09242123281376913,0.13477517934899438,30,18,62,55,1
0.0007880519438793071,0.001368019047104019,0.09151998201409134,0.15290235110193293,28,18,58,50,1
0.0008060063730275067,0.0015128893272648354,0.08558670693131387,0.16012685408220317,26,20,53,49,1
0.0007235117652344562,0.0014305854526940403,0.08190073736201661,0.15151430990492268,22,24,61,56,1
0.0007278235897494055,0.0013028594660709767,0.0848788169930574,0.15019092908247408,22,26,58,59,1
0.00021637797055569781,0.0005000980184422771,0.014456549545612617,0.03775021190505503,15,18,50,65,2
0.0002589503863291482,0.0005336601593972571,0.01605453634883798,0.0430161894842207,12,18,54,59,2
0.0002942986717300643,0.0005080177424088543,0.020668972178893942,0.04025530177192919,13,20,58,59,2
0.0003343744027987088,0.0004675605023390628,0.028355742202453252,0.033136157762253406,18,16,62,56,2
0.0004853608920933183,0.0003540916206844385,0.05551959979416412,0.032085920210861166,23,16,56,57,2
0.0006241560837027696,0.0002620722484164314,0.08039706284643472,0.030913807154576103,28,24,60,72,2
0.0012405267703705968,0.0003604598135252046,0.17179680198107258,0.05721927987866751,22,26,65,73,2
0.0013970418319700167,0.0004576735531717085,0.1977604048444329,0.0723133339223873,24,26,67,73,2
0.0019808418767382173,0.0005021036664456627,0.3009698348693475,0.09065306320477116,28,36,76,77,2
0.0023962175963585957,0.0006340211151040823,0.37922882879757713,0.11379700124654339,36,38,82,78,2
0.002570903414286196,0.0006921068164941356,0.42067752535239233,0.1198890226576154,36,40,82,77,2
0.003165837628456643,0.0007164722750901248,0.5168465524602482,0.12723905531797505,44,46,86,82,2
0.003173003368768379,0.0007681077152165243,0.568516153492006,0.14236406355399556,44,40,84,86,2
0.003788261643336264,0.0008191590071760581,0.6716281096538032,0.14466076698126537,44,36,78,82,2
0.003723260145784485,0.0007203216956888739,0.648248472008093,0.12920006413318963,36,34,80,87,2
0.0033753280963384246,0.0006505487813312072,0.5846182818816592,0.11919281085438818,38,34,79,88,2
0.002822021786749172,0.0005620209609895959,0.5017646843584764,0.09854713541621042,40,32,86,85,2
0.0021161313307569724,0.0004345592415751081,0.387347312372536,0.07784459600876296,44,30,93,91,2
0.0018814768110665362,0.00043950415406513723,0.37913719314331173,0.08100176581247177,50,38,96,87,2
0.0019256460463378522,0.000468673278691683,0.3889586112525692,0.08461174656610673,38,42,100,89,2
0.0021268475158722814,0.000539975004748725,0.4007233304167966,0.0942889603936361,38,42,94,94,2
0.002165120807263293,0.0005367608038951386,0.41729906228249325,0.09924146484777117,40,40,94,87,2
0.0022935621768864207,0.0005406308747733502,0.4155813628547463,0.09612246734999878,40,40,87,88,2
0.0022864912967777017,0.0005490101648878508,0.43165640759451557,0.10322557713214599,36,36,87,86,2
0.0024314208193767957,0.000518952796744551,0.4417621500467517,0.09898023273698325,44,38,83,87,2
0.00241939832771884,0.0005236786791131031,0.4404157503510967,0.10302951919016896,38,46,85,86,2
0.0023994389450664286,0.0005654799947383451,0.43185560469664197,0.10631040669283696,34,46,84,82,2
0.0024622374344863383,0.0005267787101516156,0.422156946237161,0.09995457230511909,34,48,83,87,2
0.0021096927144195984,0.0004832020576285196,0.4077334498229096,0.09317169882578326,38,54,85,91,2
0.0022579524199179356,0.0004642197915797369,0.3913522179143996,0.08770591209716498,32,50,82,91,2
0.0022210961804372854,0.00046140058728127634,0.36186075127239903,0.08263004656036955,36,44,82,95,2
0.001962670971326738,0.0004337537591566144,0.33596669937987317,0.07989389096635442,32,50,84,94,2
0.0018867375137450958,0.0004375075782286533,0.29570560238725996,0.07497243122988285,28,44,83,92,2
0.0015713319193065684,0.00035996911514537584,0.26555917454037364,0.06762034762370024,32,46,91,100,2
0.0016146336475588699,0.00035899592647868454,0.26424382493432896,0.06912752047240317,28,44,93,96,2
0.0015320746044421686,0.00032293164921591864,0.2684180115488542,0.06399195890436923,30,38,88,103,2
0.0014635486386335003,0.000339372099676772,0.26473379003141,0.06121973226739868,30,34,91,102,2
0.001533822019643093,0.0003662911813888174,0.28108796911728234,0.07191668770219282,36,38,89,90,2
0.0016805810466732451,0.0003878188720833712,0.3064142029674315,0.07161469159508453,36,38,84,94,2
0.0017518042835944134,0.0004922515092834167,0.3398322673171833,0.08828813242927251,40,32,84,83,2
0.0021498098103507894,0.0005805530085904243,0.3657895894409762,0.10202786892480585,34,36,84,85,2
0.0024218758466071004,0.0005734798889402543,0.39608997849203476,0.11015059968261097,30,44,85,93,2
0.002353353792123986,0.0005878426516998297,0.4276141962821205,0.11084196638382955,38,44,86,90,2
0.0023354339767215084,0.0005535973526270092,0.396761384328877,0.10839473132445337,40,42,87,88,2
0.0022196208674288144,0.0004863572150147173,0.3777433497613544,0.10016306385867163,36,44,87,89,2
0.001965900551568661,0.0004998551611188217,0.338657623479578,0.09623098218515266,32,40,84,81,2
0.001897045068776692,0.0005252037633182342,0.3378133539020863,0.09581943162622905,34,48,77,84,2
0.002045251183048206,0.000529082404010801,0.3540681515022489,0.09116521079634883,34,42,77,83,2
0.00027870830380502824,0.0020362829891290763,0.029369901041989555,0.24267584194205064,20,24,55,52,3
0.0003468109237544522,0.0023744029121081345,0.03669303799230039,0.3145261413961159,19,26,58,63,3
0.000367689915280449,0.0023860331430211002,0.04527365976391484,0.34872508861600177,28,28,59,64,3
0.00039891183079540025,0.0021736867005977063,0.05132948100548666,0.3271350074061419,30,34,60,65,3
0.00044291999254947,0.0022545680646496426,0.05887179976813949,0.3563389940603318,32,36,65,70,3
0.00047151167014914834,0.002339948005352363,0.06555010804903776,0.3528426434206354,30,32,70,71,3
0.00045182909615135787,0.0021609880710984847,0.062323369399501,0.33249959350562897,28,36,73,67,3
0.000442029162048482,0.002200624861550127,0.05933561605751422,0.3079867485394301,28,26,66,68,3
0.00045978553928137725,0.001952396990083792,0.06169253760531364,0.2938947173553145,26,26,68,64,3
0.0004134823252297704,0.0017714061190703175,0.055721199980412014,0.26408393767770155,30,32,73,76,3
0.0004121446814815879,0.0018434825122201292,0.05643589844090215,0.2839526619225446,30,26,73,78,3
0.0004113387830306393,0.0018343681643569485,0.06191946111894007,0.32294285757545454,36,42,74,77,3
0.0003835860837977751,0.001791724660754869,0.05665428817401732,0.3183738549655976,34,40,82,76,3
0.00039049535865409555,0.002089976783384581,0.055685597128153456,0.3510263403224416,38,40,76,67,3
0.00044825957820740747,0.0020785525640392884,0.0595730568848977,0.33957950418125377,30,44,78,69,3
0.0003905607015195993,0.0019162736054150924,0.05387417381192597,0.29994684036734565,28,32,73,69,3
0.00042384059352808555,0.0017841759035779167,0.05325732412469886,0.28469319899877155,24,34,67,74,3
0.00042077310057822537,0.001651283275350624,0.05287179278675774,0.2581216476711948,30,34,68,75,3
0.0004074129993324153,0.0015654585704931055,0.04956225594653566,0.24830058630092244,26,34,73,78,3
0.00039637146103817613,0.0017079444137140243,0.04561575817123616,0.2527418573610084,30,34,68,75,3
0.00035789721676868897,0.0017704832401126394,0.041908486785714925,0.2719476818405033,22,32,78,74,3
0.00038430947555250227,0.0016941685137554848,0.04239090236719594,0.2691051293470562,25,44,79,68,3
0.00046313642870943027,0.0016287282161989026,0.04992287220069236,0.25523582420884444,22,40,78,71,3
0.000568695447677164,0.001613121445571123,0.06599566243168732,0.25897904003311,18,40,73,70,3
0.0006730142721282608,0.0015146556286047463,0.07689585773514354,0.23313565976191997,22,34,59,69,3
0.0007216719278577008,0.0016614258279822156,0.07997392345674978,0.22844806884761937,30,28,55,72,3
0.0007426907034475529,0.001553331416489543,0.07697863379570434,0.22684642461169163,24,32,54,74,3
0.0006360101963089069,0.0014295322302865596,0.06713690205483254,0.19293753867591995,28,28,55,79,3
0.000644234679505217,0.0015842776887592263,0.06690118608539804,0.20382973317954448,28,24,55,79,3
0.0007599984407469744,0.0016287998572839233,0.07631414770465428,0.20421759330102948,26,32,56,72,3
0.0006853332087215715,0.0016481629834411598,0.07467306934769655,0.20581825918456295,24,30,54,73,3
0.0006462486966426853,0.0016614042399146045,0.07392511981791604,0.21680745310180108,24,30,58,70,3
0.0006311366798048511,0.0017744911804154567,0.07029070571623189,0.22381616959190548,22,26,57,69,3
0.0005410745722252804,0.0015266338767868468,0.06518190589129048,0.22243140679819806,24,28,60,71,3
0.0005285434150060723,0.0015918736321588022,0.064859972843067,0.2308228970926251,26,28,63,68,3
0.0005664569063824311,0.0015501283519643114,0.06738988257526812,0.23414576704485507,24,34,62,72,3
0.0005526301651624852,0.001454065255739866,0.06626775198383217,0.2175768603612028,24,32,64,74,3
0.0005628220036856561,0.001388158230795769,0.06851305762863545,0.20777776826287142,28,40,61,74,3
0.0005991773758353866,0.00130405069043207,0.07633497595531516,0.20040926449917035,28,32,66,74,3
0.0005750886991496575,0.0017439968220803053,0.07259229309763984,0.24741682310113278,20,36,65,75,3
0.0005006215398062312,0.0017175641191418858,0.07003216391610709,0.2629468271285418,24,28,68,81,3
0.0004820375404788589,0.0019518509888701745,0.06487898708260288,0.29720816513014975,28,26,73,81,3
0.00046358668729204743,0.0022088869789115705,0.05589229920895057,0.33157809635592844,32,24,76,75,3
0.00043380726935694775,0.002387221432578045,0.059539536008089214,0.30952892629751394,37,24,71,69,3
0.0005158782885222551,0.00243790152624222,0.0660379173267023,0.34064217489551446,36,30,74,65,3
0.0005174281318193205,0.002344659093106011,0.06528328648242454,0.32966295050753486,33,26,70,64,3
0.0005586157914345751,0.0023139897518670606,0.06387549805198026,0.310557915803339,26,28,68,61,3
0.0006256362702513743,0.002165710556773948,0.06868915600312006,0.30193956710693914,28,30,69,66,3
0.00012264169045195288,0.00024921150328093206,0.007994492442076298,0.021920531540066034,20,25,48,51,4
0.00012791783319077493,0.00024906804554809597,0.007795345260196627,0.021368791153915052,18,20,36,52,4
0.00012351310475164563,0.00021975195513681693,0.00783541133374898,0.01680051363258936,20,20,42,50,4
0.00012881332030422293,0.00021515806273506198,0.0078027927250998545,0.017143151247486492,18,16,40,46,4
0.0001244076119639973,0.0002593339331245488,0.008094090540954184,0.017556822944375473,18,13,48,50,4
0.00012964907591459868,0.00021521627503766477,0.008145182879059201,0.01691716729080948,18,16,42,48,4
0.00012534098291615582,0.00019289518680154456,0.008030626413754629,0.015486637133046394,20,18,40,49,4
0.00013112922268344431,0.00020467265848831312,0.008429859029714052,0.014446347368753063,18,20,48,49,4
0.00012584151146212473,0.00019414901785909283,0.008372871025671762,0.013009351350076893,18,15,46,48,4
0.0001322196093842474,0.00019092419075997802,0.008334417121108334,0.013355367920402542,18,20,52,48,4
0.0001258260478497985,0.00019451295043056187,0.00833098788931317,0.015040853294373123,18,16,56,45,4
0.00012807752674724558,0.00018444037417913363,0.007945242672194278,0.014967000613517994,18,16,38,53,4
0.00012494481560718865,0.00021381739796387883,0.007915329668407403,0.01791945280717476,20,13,48,49,4
0.0001282747739275649,0.00022335831689139607,0.00788230298301401,0.016233609531849456,18,12,44,48,4
0.00012370190102370854,0.00022248480074581805,0.007970211011663389,0.015993152683098526,18,17,42,43,4
0.0001263794482583125,0.00020482857891951982,0.008040855260809714,0.0161054641622103,18,18,40,45,4
0.0001227840853758883,0.0002020656662382603,0.008260947259998637,0.013466553779239518,20,15,36,41,4
0.00012448130924996766,0.00018931841480846978,0.00814696079864138,0.01371595289036725,18,20,42,42,4
0.00012182566850032447,0.0002594994637063304,0.00810066291962632,0.017936304899721433,20,17,40,34,4
0.0001242478749190694,0.0002448292677689518,0.007975035816136506,0.01867018091246173,18,18,42,37,4
0.00011862730611518031,0.0002439620335141904,0.007877864662476941,0.01861592862550926,20,15,43,38,4
0.00012820381839921034,0.00022340990155281994,0.008801230794624873,0.018185709098150125,18,18,50,42,4
0.0001245477743153736,0.000176028922256274,0.008906391289113124,0.013541942910506916,18,18,50,48,4
0.00012966543803344936,0.0001633164140023493,0.008995907930241534,0.013056860613946328,18,20,52,45,4
0.00012356199588214932,0.00017833139662148085,0.009018447848200514,0.012250154814093087,18,16,50,47,4
0.00011956910526370603,0.00017403603190315847,0.007769961997223474,0.011494492342396134,18,18,40,45,4
0.00011538322140648186,0.00017198269049446295,0.007828508271407257,0.013070900790497083,20,20,46,44,4
0.00018549406708690547,0.00024122528296580822,0.01193174254437516,0.02001215800099712,16,20,28,38,4
0.0003032668493919456,0.0002760852860390153,0.021545192387428195,0.023588771572989727,16,18,25,35,4
0.00040219228308102276,0.00033858882871495654,0.0282098864943843,0.02849488584151605,20,20,21,41,4
0.0003958656003050281,0.0003506788373658506,0.02884233143473017,0.03211826478827374,20,16,21,46,4
0.0003011710175659538,0.00038385079848837674,0.023043047280358404,0.034694751633596574,22,12,21,47,4
0.0002148960648507063,0.000423567205248208,0.01624855804400971,0.039435389460233956,20,13,26,56,4
0.0002202329677216705,0.0004181091406521537,0.01658549013192145,0.0397752084962452,21,10,28,55,4
0.00021950635091370828,0.00037622628645337183,0.016624844097894,0.03735052322977213,18,12,30,59,4
0.00021996806833736056,0.0003044041310317201,0.016804266015059625,0.03188372233869366,21,18,34,61,4
0.00021393716268989666,0.00021080026882688976,0.016126010405898,0.025021514796071165,18,22,26,56,4
0.0002116302178010036,0.0002422831071171646,0.015644915134124478,0.025150377310875053,21,18,24,53,4
0.00021152475876739073,0.00023394688973625837,0.015506773205243848,0.023824047916038645,18,18,24,47,4
0.00021028813663394094,0.0002476108289453119,0.015257033809631924,0.02462044300673833,21,18,24,51,4
0.00020720125428294795,0.00023402320726048097,0.01516222423364701,0.02461823520148611,18,22,22,62,4
0.0002100657095141864,0.00021297001931366283,0.015250707782166173,0.025908527104522145,20,20,24,62,4
0.00020887806647677674,0.00020384242702596524,0.015412602256326369,0.024591242886138547,18,24,26,68,4
0.00020781825993992106,0.00020677422741721894,0.015339409128127151,0.024153371190829383,20,20,24,67,4
0.00020808196071324525,0.00021900769760668893,0.015387617625232157,0.02482525177394294,18,20,28,69,4
0.00020997313349625243,0.00020435793593854984,0.015316132742634957,0.023677706823817507,20,18,28,62,4
0.00021191448609791035,0.00028616760869921206,0.015292685131938981,0.029122898531037358,20,14,28,59,4
0.00020891756894297095,0.00026649161238849565,0.015140076355939077,0.02969458507808374,20,20,28,60,4
0.0006522606391390063,0.002078897072488312,0.09882730167727041,0.25754293373352133,34,26,77,56,0
0.0006655286825461704,0.0019456894510027254,0.09780432271753735,0.2401691079313648,40,26,72,60,0
0.0005521711766805312,0.002039812870256221,0.08960583486916467,0.24533969361780622,40,24,69,53,0
0.0006266061595718803,0.002122737533567429,0.09571670204972395,0.2628905165541131,38,26,69,51,0
0.000568655026751848,0.001926030083272498,0.0964075211006258,0.25168822628128656,44,24,70,59,0
0.0005668804843250671,0.0019020715082423826,0.08889114201493808,0.2510058788347875,36,20,70,64,0
0.0007107728327065887,0.0018604769873608153,0.09793164267039983,0.24937491201096962,32,26,72,68,0
0.000653204203131974,0.0018056453888577778,0.09531030054122058,0.23115777723806868,30,26,74,68,0
0.0006701547775197779,0.0018025956566480165,0.08699627793778254,0.22103387401165045,32,28,72,64,0
0.000630854570784807,0.0018041468892357943,0.0911091240649847,0.22823713113185262,34,22,77,65,0
0.0006207616548551748,0.0021180319596833335,0.08604920938750708,0.2456515444241481,38,24,75,55,0
0.0005943199188911428,0.0020058922473722308,0.0774589397001194,0.23015102086122594,34,26,72,64,0
0.0005935247292222804,0.002034316991999151,0.0797808086174517,0.23926219168212864,32,24,73,63,0
0.0005590885295313782,0.0017819006215983623,0.07646318784124313,0.21540663886116324,33,28,70,63,0
0.0005353812541659368,0.001646938841421062,0.07545002274661218,0.2059255555926766,34,30,66,70,0
0.0005516799700375954,0.001676366322503606,0.07382935528980927,0.19540302266924692,37,28,69,68,0
0.0005763084969385663,0.001719264000366643,0.07227570172667408,0.19273117727420475,30,30,60,62,0
0.0005343519698400184,0.0016241331585528415,0.06778469862863293,0.1829159381675532,31,26,62,65,0
0.0005313454910373863,0.0015793816966802165,0.06831094554267,0.18727344359082407,28,30,67,59,0
0.000533296139169415,0.001447360285001062,0.07193312159835676,0.19615549345460728,34,26,70,61,0
0.0005907205040579094,0.001692570979144385,0.07528449699173409,0.20611856951586863,30,24,76,60,0
0.0006300039627121049,0.0017717512799666718,0.08170332362680137,0.22095366676080805,32,26,74,57,0
0.000663838303210727,0.0018257738322192665,0.08424343114492082,0.22412629904232223,24,26,67,53,0
0.0005960483980783101,0.0017232960102819246,0.08332424481162592,0.2167103280102334,26,24,63,56,0
0.000592231760262894,0.0016584824719501768,0.08306442864773911,0.20363087726868637,28,26,62,67,0
0.0005855859528378933,0.0017619269601944932,0.08937805808561862,0.22136011860231347,31,26,62,65,0
0.0006176384328195357,0.0016351408919882075,0.0877365980630997,0.19602128875464284,32,26,65,70,0
0.0006383225142121675,0.001969383898584022,0.08809602011038116,0.22845642364898494,28,22,62,62,0
0.0006256660725213767,0.0020620677013607337,0.09078759051093321,0.2482191892897501,30,28,66,58,0
0.0006423092147039783,0.0023723881287737985,0.08231740503999292,0.2719367807262569,31,24,68,56,0
0.0006785305112018944,0.002599679896190584,0.08528241687810766,0.30713605791810433,32,32,72,49,0
0.0006835927556013168,0.0023505843353089336,0.08869971239865862,0.28638989211891963,34,34,72,61,0
0.0006429475219086353,0.0021863670302106207,0.08555696303356465,0.2709600910554467,32,30,74,59,0
0.0008837646674688188,0.001958748048154426,0.10436026835997159,0.2491332616205613,26,28,74,62,0
0.000882834130819181,0.001695311130293941,0.10546475990177831,0.21654801168418736,24,28,71,61,0
0.000982212763728012,0.0019497935082369343,0.11665590971782099,0.22801713786168956,24,26,64,57,0
0.0011212924063832349,0.002088321811691057,0.12101878930021415,0.23699463860457565,24,28,60,58,0
0.0008575302567918882,0.0018215485453036578,0.10180099537058411,0.2134758810052716,28,28,69,67,0
0.000833475318662083,0.0021563876020226805,0.0989905719111226,0.2524325615501385,28,30,65,63,0
0.00082515395881958,0.00191093641969552,0.09865903623347638,0.2586358185691049,24,30,69,67,0
0.0007786696236739277,0.002031755364309745,0.10431608017582317,0.28754860463424897,30,34,63,66,0
0.000866329117596841,0.0023166952855590427,0.12119621296931239,0.31473354296549616,28,34,64,61,0
0.0008277587898755201,0.0023834269769888753,0.1203360017650326,0.29697928500235626,30,30,66,65,0
0.0008182657008162849,0.0022833055508104092,0.10668238770430634,0.2772931625741001,32,38,67,64,0
0.0006718368543969962,0.0021127017040449537,0.09684292509346001,0.26954143554253907,26,32,71,62,0
0.0006081259791361809,0.002170058967598952,0.07606259612349517,0.25924304722924035,34,22,70,59,0
0.0005692176486342721,0.002484523191700918,0.07511970343821266,0.27194947671318714,34,24,72,52,0
0.0006044828344444311,0.0023971973557197603,0.07920786267289072,0.2745906800718964,24,22,71,50,0
0.0006442311381718392,0.002287664358369763,0.09199827311714018,0.26827786970599116,36,24,74,51,0
0.0005823202873448124,0.0014492735022313653,0.06773039134906615,0.13736055204939498,24,14,70,60,1
0.00047037379794453874,0.001157941122880597,0.06056946624313628,0.1284175899074037,28,20,83,63,1
0.0006197942776232833,0.0011884434284049367,0.06983984880406023,0.13842578776876704,23,22,73,59,1
0.0007577429439705191,0.0013600950813441733,0.08361220350897021,0.15731266246310788,22,24,66,55,1
0.0008582332695383425,0.001515248557894551,0.0897377343119671,0.17585774590196654,20,24,65,58,1
0.0008566130180171819,0.0015842525232506299,0.09044182014125668,0.18785496344837613,20,30,67,49,1
0.000816369640280034,0.0015856300830067451,0.07792082466038511,0.18854214948635295,16,30,60,48,1
0.0006820368558417397,0.0015500054188795813,0.07436261659449156,0.18148748809294582,20,28,70,49,1
0.0006566733391927531,0.00162321750311522,0.07480803612034143,0.17152515585273545,26,26,65,48,1
0.0008201583361488992,0.002041211080584861,0.10508852270279176,0.22562906668450822,36,24,68,53,1
0.0012457526532407873,0.0025133516748818458,0.1522743253574779,0.2784922773850291,24,22,62,57,1
0.001492494020027446,0.0030959785431140595,0.17391192047404935,0.33223320464827094,24,22,65,62,1
0.001769768555275726,0.00320977595775977,0.20181495536550392,0.3607435694222143,26,24,54,58,1
0.0018610830755943222,0.0029600900023281735,0.19730263780413992,0.32624319952904707,24,20,55,57,1
0.0016271616328418536,0.0025312132654416748,0.18352204527363902,0.28867396688224267,28,24,60,63,1
0.001868625408072749,0.0025800723406159036,0.22195931188666793,0.30676000708937123,30,20,54,59,1
0.0017828314785458901,0.002580115237052358,0.21930543309883543,0.3094792913639213,30,20,54,57,1
0.0018955644559281266,0.002455060214249436,0.22807524065560197,0.29726322631989793,32,22,47,53,1
0.002053563297992119,0.0026092023024732658,0.2319512942906819,0.3314308482950753,24,22,48,50,1
0.0015851660996291871,0.00227578452899158,0.19444755973707878,0.29553822946065134,28,26,57,54,1
0.0016313232104204006,0.0023162891713856197,0.19743858850142543,0.2882451203160376,26,24,66,48,1
0.0014669847061825612,0.002498943034446487,0.19314447010824207,0.3174859283550743,32,26,69,51,1
0.00162939892092785,0.002272015695613406,0.1983901793088576,0.2990368039589008,30,30,67,56,1
0.0014931257859499337,0.0025002684850335705,0.18367649629804136,0.3018471029726745,28,30,64,56,1
0.001459604608014765,0.0022844202131498993,0.1754886521242034,0.29905635834902417,26,28,67,65,1
0.001329193546129289,0.002168772150871681,0.1734756500004296,0.2804171383514643,26,26,64,65,1
0.0011318135428776764,0.0022166921284984312,0.15150122147668965,0.2808807378393934,26,18,68,69,1
0.0010661126840545113,0.0023354627838984114,0.15048138329973768,0.2984533340154475,26,26,68,67,1
0.001110330940618684,0.002316529852294938,0.14885604567727986,0.28791705765866893,30,20,66,64,1
0.001128151077857271,0.0022685374368184674,0.15080628259334866,0.29677092279659556,30,22,62,61,1
0.0011649606093665343,0.0020941853916443555,0.1485410818697648,0.26885309623698594,36,22,63,55,1
0.0012933712410825224,0.001965477379593905,0.15003527094485505,0.24110193889408146,24,20,59,55,1
0.0012399521815718772,0.0018895456958599674,0.14064526574411632,0.2436153302242677,22,22,63,58,1
0.001181256304367892,0.0016848179004783088,0.139205578530605,0.22789106653220698,28,28,61,55,1
0.0014366999443473044,0.001988868692531441,0.15461128774727148,0.28728483440736613,18,26,61,60,1
0.0013945109106738968,0.001850568336396119,0.16691040091330267,0.26007547170856316,26,28,57,66,1
0.0014251425129487207,0.0020010026046080524,0.1718331058535915,0.26924129880042624,26,22,56,64,1
0.001446409374454786,0.0020607072780769284,0.1614806173604757,0.28222987608043426,22,20,55,59,1
0.0011973749804121661,0.001729555601534654,0.14966419644808365,0.2297873317954402,30,28,58,60,1
0.0011052341194985132,0.001717575113848849,0.13809930030393494,0.2371289434406282,30,30,57,58,1
0.0012707452844018209,0.0016826933235633377,0.14922116708823838,0.22606041618411188,28,30,63,60,1
0.0013633177276686098,0.001424453694525958,0.1579942650139965,0.1911108709803518,26,34,58,61,1
0.0013325233780111744,0.00150211138306092,0.1436667661833959,0.18153252710475834,20,26,64,63,1
0.0013938030411240962,0.0014200020315484107,0.13623230449244036,0.16163577805315094,16,26,58,72,1
0.0010834692428018978,0.001104092286967249,0.10659965658199953,0.12603484232060294,16,26,64,69,1
0.0009669406750681246,0.0011385765615796494,0.10985960958851435,0.14352495579240016,22,22,57,64,1
0.0012873189824987089,0.00139833808039957,0.1354140666252327,0.16745864934813579,24,14,50,64,1
0.0014930557334767952,0.0017795003636733417,0.1580690044990045,0.21597188254163535,12,18,53,54,1
0.001704311131472873,0.0020216615511249184,0.17667974622370786,0.24430415899955285,20,18,52,52,1
0.0018112976320579157,0.0005488879540394845,0.3365884937047419,0.1025560702860074,42,38,88,92,2
0.0016581061650413013,0.0004837862798388571,0.2916917143492566,0.09218708101125218,36,44,81,88,2
0.0015500591724064488,0.00041896358145969133,0.25143037936824486,0.07450654410800657,38,42,82,88,2
0.0010908338216405842,0.000337499598443668,0.21910433373380525,0.058259029489005014,38,38,88,95,2
0.0011610994988986857,0.0003251339438567406,0.19758747710397684,0.05711753867533033,34,36,92,90,2
0.0012215919958092044,0.0003800538923397806,0.21824954597263718,0.06149538174220161,40,36,91,92,2
0.0015244634269086599,0.0003898736245579652,0.2559576420786219,0.0716527035338718,32,44,93,92,2
0.0017844965485014316,0.00043065431721061274,0.2992581064338054,0.07763568959448018,32,38,83,87,2
0.001895756486509774,0.0004719015009200295,0.3022137234008874,0.08656437687547174,34,38,85,90,2
0.0016383514057454365,0.00045154626502171935,0.2678367155366321,0.08282883567078024,34,32,73,85,2
0.0015309682697498986,0.0004240285920213126,0.24130024766632124,0.0757100582452536,26,38,76,88,2
0.0016281342872603477,0.0004491685138656022,0.23271740730306353,0.07605048115596684,30,38,70,79,2
0.001633747548937308,0.00041465632383378754,0.2605039995529262,0.07057021932342829,28,40,73,80,2
0.0021467998111815924,0.0004884403089621015,0.36257039615390846,0.09211512133649237,40,44,78,85,2
0.002391851635308146,0.0005045305008279172,0.3887291780382425,0.09691754114545671,38,48,76,93,2
0.002343734882154367,0.0004771950914435196,0.4236288714899633,0.09788328072932001,38,44,84,96,2
0.002444115396379718,0.0004832175577535229,0.4472540447494452,0.09793898859930235,34,54,79,93,2
0.002389297937041309,0.0004615886659404729,0.4388936218699293,0.08821884149256404,36,46,78,92,2
0.0024180349118373763,0.0004977067815181329,0.45917364274267425,0.09441555600328151,38,48,78,90,2
0.0024670383498994666,0.00048265957475383,0.43943841075786133,0.08994827807461776,38,48,74,84,2
0.0023713235586105895,0.0004527366003863519,0.4185734885389304,0.08348281666470676,34,46,80,90,2
0.0022829636497554723,0.0005123286281651889,0.4107631554844177,0.08196762144423773,34,42,80,74,2
0.002176197087039786,0.00047635890192251304,0.3999435664525988,0.08137157033880321,34,42,86,75,2
0.0022848831665277835,0.0004552976857963838,0.37278453998943417,0.08310471693041525,32,38,85,82,2
0.0019966709557823967,0.00045339452228282347,0.3456470254074083,0.08058208544706105,36,44,87,93,2
0.001870425840913983,0.0004532787786728774,0.32680113642383274,0.07969841499004787,38,44,91,93,2
0.0019064803365230747,0.0004098529550389883,0.32338450128382723,0.0730810264777335,36,48,90,89,2
0.0019849679005504843,0.0004324101597555726,0.3533279502226836,0.07759658995671251,32,48,95,90,2
0.0020940034490112476,0.0004983876215342152,0.38047075371334105,0.09072588251156831,32,48,93,89,2
0.002392546561955366,0.0005341803718994499,0.4216573842679012,0.09866549505854154,34,44,87,87,2
0.0023058548555500076,0.0005890483214271576,0.4152902665503772,0.10468556526245325,40,44,84,91,2
0.0021395269920160046,0.0005563596684248145,0.382264571656762,0.09892067841764669,38,42,86,84,2
0.001932969168749879,0.0005186965102243781,0.36091014352106865,0.09157340485509606,36,42,89,86,2
0.0016391620023767791,0.00043001491441861455,0.3027986452628459,0.08142965487000937,36,34,90,87,2
0.001489259808345203,0.0003997502812801091,0.2884831308055411,0.07384268308400196,42,40,88,85,2
0.0015682150436536915,0.0003994940596973395,0.2853979280145921,0.07562767194406302,36,44,91,83,2
0.0015737674954269967,0.0004165382699595991,0.2862509476034139,0.07177144134543638,38,44,90,80,2
0.0016113248007515336,0.000440714728755149,0.29534989399543055,0.07664004245498639,38,46,90,82,2
0.0015363554797413557,0.000419905901388677,0.28930773453807757,0.07708122289544332,36,40,85,84,2
0.0017194499299385054,0.0004335271310494122,0.31409687687544763,0.07997009246318225,38,36,87,87,2
0.0018106603982179185,0.0004443654927542213,0.34649886160450677,0.08236767335729801,50,48,78,89,2
0.0019308444106292538,0.0004686752256265609,0.3494681237055599,0.08143413835613383,48,42,85,89,2
0.0018372282453120606,0.0004179131744274957,0.35754940942869473,0.07592808960708416,46,38,85,90,2
0.0016553441647137845,0.0003634756247509648,0.328349837393299,0.06432946809634475,44,40,86,89,2
0.001499714778331322,0.0003240484095715212,0.2836289363101617,0.05583600475325943,36,40,93,88,2
0.0013778223073499813,0.00033328519148869405,0.26139226306140056,0.054541345031584934,42,40,85,81,2
0.0012867350799785921,0.0003479535548803085,0.22831710144687012,0.05621552137487667,40,44,84,80,2
0.0012605752682902848,0.00033106787807725706,0.22641212890600784,0.057187086518767846,34,46,86,81,2
0.0012886606636446458,0.0003409374124611796,0.23240582703264995,0.06035950199892272,36,50,90,88,2
0.00046165753597479653,0.0013980184560703013,0.053521130779987845,0.20044302370027464,24,24,67,74,3
0.00040178640288948263,0.0014835335546855364,0.05455869158783393,0.2058843836735042,29,24,69,69,3
0.0004288853071475094,0.001495303218158909,0.05205551029264663,0.2028266854816905,28,28,66,66,3
0.00047070702581613493,0.0015028390517656455,0.05391792084009924,0.20850691943941585,27,32,61,68,3
0.0005099767808108655,0.0018333103424673606,0.05752008789650542,0.25502195730911836,24,32,63,64,3
0.0005228223413288294,0.002012245663790245,0.06166561473966426,0.27711823051977474,24,26,58,63,3
0.0006143386681423921,0.0020828758472049786,0.06768912126743441,0.3078411704743849,24,28,57,61,3
0.0006368087770272106,0.002386015547744814,0.07728813958576108,0.338031865237661,28,36,62,62,3
0.0006982746422980137,0.0024604565265215666,0.07912620776873615,0.32498905168378506,26,32,60,66,3
0.0006608644808579779,0.0024178502383569033,0.07118344832097194,0.31607470137579297,30,30,70,73,3
0.0006127682228574157,0.0022392898669271796,0.0636382534038554,0.2769687158338389,20,24,65,73,3
0.0004907883989546682,0.0017232671690742103,0.05016319133186129,0.21971470296844314,27,32,64,69,3
0.00040098819807717507,0.0014432242179594705,0.04660382700271997,0.20659596163115024,22,30,69,67,3
0.0003844849885360505,0.0011496184367631897,0.049153194525365845,0.19022989056536324,27,36,70,78,3
0.0003863905693122883,0.0012914059430693668,0.04956853197492096,0.21028602462246354,28,34,75,75,3
0.0003732618321879778,0.0014881882090325704,0.051779040470236945,0.21978758954901034,31,32,73,69,3
0.0003822856097816343,0.0013560724766295733,0.04807555397602477,0.20451008955545644,32,34,68,73,3
0.000400822456811399,0.0014689499823330346,0.046292368520508824,0.20043413680480962,25,30,68,71,3
0.00040331982895473636,0.0014147849931674015,0.04985536885990161,0.20980331441891165,26,30,62,71,3
0.0004329660168526418,0.0015999475515113212,0.05465420783057701,0.216167335625319,35,28,64,68,3
0.0004838616607869546,0.0016574416489349125,0.056489828045404956,0.22094872856543593,32,28,59,71,3
0.0005571813953823495,0.001684853959251897,0.06105080543696109,0.23892806747365897,29,26,65,69,3
0.0004693320465589075,0.0017459710471920606,0.05561616833551351,0.23617123251406852,26,20,80,66,3
0.00044524698709365025,0.001676628126083055,0.054209594358280606,0.24357865028672063,32,22,76,68,3
0.00038679440429825697,0.0017204026681174429,0.056143081776109924,0.24259850337071437,32,26,74,64,3
0.0004298806195454626,0.0016359760290652575,0.05664440794529404,0.2511578253991518,37,30,63,71,3
0.0004113397528545135,0.0015938986762797872,0.06087929810016016,0.24187342706052717,32,36,62,72,3
0.0005150833553447973,0.0015354708129924361,0.061388409998584706,0.2411985970175322,29,36,62,70,3
0.0004806494279003363,0.0018459387498829447,0.061402652836729264,0.2662849729545697,28,26,61,71,3
0.00046581687143346746,0.0018485360147436538,0.05614046875447675,0.2598531215862639,35,32,64,70,3
0.0005656498294483823,0.002025741796679096,0.062034067311139855,0.2889705942387055,22,34,64,72,3
0.0005346412918566603,0.0019381596240129837,0.06330463731249035,0.28482461358289335,23,28,69,76,3
0.0004805558199064707,0.001895315858649179,0.06699888864717393,0.2714064438329753,28,30,72,74,3
0.0004785493702958448,0.0016326949988526266,0.06967123648161642,0.258289220359812,25,36,68,74,3
0.0004891661578947418,0.001508602960268289,0.06467123332365184,0.22697838240606952,26,38,64,73,3
0.00046819471394291603,0.0014313588172876234,0.06374648172571355,0.231897152541592,33,36,61,71,3
0.00047863556434120884,0.0015787090276277343,0.06555958336844656,0.2526304505781938,28,34,64,72,3
0.0005155218284529343,0.0016284294518578493,0.0646703516152451,0.25369723624404694,27,28,70,72,3
0.0004968902563653349,0.0018793982430555828,0.07050651250187358,0.2795153314230747,30,30,69,71,3
0.000492713699910654,0.0019004165975220028,0.07373912942617998,0.30038221018496414,31,36,72,68,3
0.0004688018815335918,0.001809458213882068,0.06759432078538902,0.2656486344947158,26,30,68,67,3
0.0005254301586255358,0.0019738884658077704,0.06508522791289029,0.28608178215311,21,26,65,61,3
0.00045918728585782857,0.0021186822597724113,0.05838245222245061,0.2767640301528553,22,28,70,63,3
0.0004960699197344052,0.0017992132726448104,0.054834530752311164,0.23938749638648568,26,26,75,65,3
0.0005030619962662411,0.002021274728047103,0.056423721189346465,0.27253102969908244,24,26,70,66,3
0.0004927001135335443,0.0019170697366547595,0.056792133853554215,0.26734728943916736,38,30,73,71,3
0.0005047200439405814,0.0017853832793359526,0.05905231226327273,0.24917455504688746,22,28,64,69,3
0.00046151048982941866,0.001847610469740989,0.055453330882741736,0.264951842995378,32,34,60,64,3
0.0004734205231333715,0.0016298103490024307,0.059399550526778214,0.2560298848622868,26,36,65,67,3
0.00024419492043827745,0.0002558051285463775,0.015498592058266288,0.028248171293400497,20,22,28,62,4
0.0002297151463806866,0.00027756591638346956,0.0151281085287605,0.03106274765071417,20,25,28,65,4
0.00026550114460703557,0.0004140902477369842,0.016222646434665772,0.038732931674741365,18,16,32,55,4
0.00025117750198813975,0.00045191531269653517,0.015816890670244877,0.03890955570703816,20,16,29,55,4
0.00026147605540175986,0.0004272102612143904,0.016325944041917773,0.036684203629850476,18,20,28,62,4
0.00024395990435467876,0.00036120576314187117,0.01625772551639967,0.032541418450473,22,20,27,66,4
0.00023689934404200568,0.00026829548110018095,0.015306125130907735,0.024071254958374873,18,20,22,70,4
0.00023826377459986201,0.00023787670852005235,0.015130738452492687,0.023525368997246422,18,29,22,63,4
0.00023562374790330278,0.0002216199625594037,0.014797326987272348,0.021152915641571936,18,28,20,56,4
0.00023349801062293483,0.00020254464596026082,0.014885652313672944,0.020106347083376865,18,27,22,50,4
0.00022790428727448398,0.0002520588249356256,0.014476217269554597,0.019981724787622675,18,16,22,42,4
0.0002305511172400155,0.00023028129282586172,0.014517114537981428,0.02154689798225314,18,20,24,42,4
0.00022874366409191108,0.0002510522976901167,0.014429013514310612,0.023649296773996138,18,20,24,47,4
0.00022887461742616424,0.0002544530976521115,0.014301702457982299,0.024206865296709828,18,19,20,47,4
0.00022542117266501936,0.00029088943245967193,0.014468231137788981,0.025884638696690623,18,16,21,48,4
0.00022678014406922944,0.00023866950792017416,0.014193023308857605,0.021485887936876776,18,24,20,56,4
0.00022543169310489705,0.00023509253438483923,0.014191947334745027,0.0205472461133405,18,26,20,50,4
0.00022673194938332985,0.00021426013153560231,0.014124915238898628,0.018984647150667826,18,26,22,54,4
0.0002332177435633825,0.00020772957751948355,0.014790879364621826,0.017906246793014925,18,24,20,51,4
0.00037869724970975,0.00024263228050539374,0.0236982544269652,0.019038374568808338,14,24,29,48,4
0.00037931500304674766,0.00023494210097119438,0.025528708502956573,0.01893203661005331,12,18,37,53,4
0.000355687862784184,0.00020428136158247027,0.02463243324594684,0.018157494136836115,16,16,36,45,4
0.00035652799150134786,0.00023181783741100842,0.02497126869992924,0.018464885188371815,12,18,41,39,4
0.00026257299815934053,0.00024833828175171535,0.01705280653355286,0.016127519801192283,12,19,33,42,4
0.0002358673867084376,0.000274321793234682,0.015882239793725106,0.01718532206100958,14,16,29,36,4
0.00024566217728288765,0.0002867690337856388,0.015904528444960507,0.017933023098135114,14,18,32,29,4
0.00024178544856279973,0.00028471622632624644,0.015419165693709191,0.017919244168468303,12,16,33,34,4
0.00024064541353154207,0.00025082752199045066,0.01568720492357333,0.01819760996497231,14,18,36,36,4
0.00023354326588528082,0.00022891802878983105,0.01566189589126346,0.015093914680210166,20,12,34,40,4
0.0002370572535645498,0.00016597610655682133,0.015140833599677357,0.013024930245512425,18,19,30,41,4
0.00022010438372478138,0.00017621058006238557,0.014759068163722348,0.012477993039808706,18,16,27,39,4
0.00021722725127572339,0.00016926678782324696,0.01463458728216414,0.011613608152323082,20,18,26,40,4
0.00021529859922780347,0.000169738983268454,0.014656217801411128,0.01275327573726083,16,16,26,35,4
0.00020856937098050023,0.00018739280246204789,0.014776910411013783,0.013604470795507974,18,18,26,39,4
0.0002227574180328578,0.00020006669152647445,0.01494551618222606,0.013623803543755156,16,14,26,33,4
0.000222659645115456,0.00020610937988833455,0.015002217720686684,0.013523343040308255,16,16,32,36,4
0.0002272691774864849,0.00019217978072898543,0.014971721556932757,0.011941315294780548,18,18,28,33,4
0.00021087654707412147,0.00018607400445167882,0.014761265076184448,0.011311636683480791,18,16,28,32,4
0.0002158544341524085,0.00016604277620180512,0.01439937899271672,0.011053589498474152,18,18,35,26,4
0.00022359987739385413,0.0001583169390680201,0.014185184874757301,0.010891828921313016,20,18,26,24,4
0.00021955244220874177,0.00016450475705868565,0.014041015694421203,0.011232319494588168,18,18,27,31,4
0.0002187620160670581,0.0001608565092237111,0.014086298243176365,0.010567620553738007,22,18,22,26,4
0.00021969105671055796,0.00016140584771990593,0.014131100160628855,0.010398155847323688,18,18,21,27,4
0.00021644072847208317,0.00015656752311427952,0.014254902407782948,0.01032062378922711,18,18,22,24,4
0.00021692017729068515,0.000160616622834759,0.01426800200256289,0.01020067228309107,18,18,20,23,4
0.00021455497307729503,0.00015842905879996142,0.014165659651053769,0.01015164241540104,20,18,21,24,4
0.00021500331202898486,0.00015814771382896268,0.014215859788783522,0.010346698207364679,18,18,23,23,4
0.00021299546638139192,0.00015870257087919823,0.014291562424111086,0.010338495864885923,18,20,24,24,4
0.00021431721108281,0.00015764464640242616,0.01423706405008164,0.010494307857946876,18,18,26,22,4
0.0007776225537226012,0.001816479324385698,0.11716903595837518,0.3101990543982107,30,38,66,69,0
0.0007968889491272773,0.0020104898877815777,0.10820314294379137,0.31365902349640423,30,38,65,68,0
0.0006536228312169947,0.00175907100639628,0.09936797787697735,0.29020210535848023,40,34,72,73,0
0.0006360961989575068,0.0017217843797580148,0.09477704569881783,0.2703027884397753,34,36,73,75,0
0.0006622005131659732,0.0016950700785836675,0.09661767037694285,0.25653346778972075,38,34,66,69,0
0.0006460671551265039,0.0015876851702312806,0.08978343365411957,0.24559729430946742,34,36,71,74,0
0.0007690622759189511,0.0019188619240412483,0.09840203552291571,0.25295027724605534,34,32,70,71,0
0.0007578557374198232,0.0019415146115515558,0.09877640946509987,0.2654331125388316,32,34,68,68,0
0.0007635791026562595,0.0021082210239618177,0.10492714792035965,0.2708552569725413,28,38,68,64,0
0.0008152306216589103,0.002319606491919659,0.1276107319415299,0.2855683950489824,36,28,67,57,0
0.0007526076721890761,0.0025414833770465006,0.12262195979963114,0.3124829850413982,36,24,70,61,0
0.000843342370845279,0.0024986790817176775,0.13697150632668773,0.3086062611359253,38,24,71,65,0
0.0008051160835944983,0.002455519473856177,0.12806745012336773,0.29356195616587716,38,24,69,66,0
0.0007611646902041162,0.0025027783138898774,0.1126156445693661,0.2765446790639413,30,18,65,64,0
0.0007250003718652324,0.0021770699048837224,0.11230512512920181,0.2441762384311906,30,18,69,68,0
0.0006977607312768651,0.0021565445056766284,0.10147643485168248,0.23564849475020874,28,20,65,60,0
0.0006369646740274558,0.0020098157461980373,0.09954348333641144,0.22178612338549886,34,22,73,62,0
0.0006638238548290912,0.0020169520105093315,0.10837536352661077,0.23846731968218354,34,24,69,62,0
0.0007047129419233342,0.0018581595385109989,0.10757222541986183,0.24575170270209892,36,30,70,66,0
0.0007624346871429717,0.001961110474532336,0.12264889037157586,0.2569266206680404,30,24,72,62,0
0.0008124053335128332,0.0019472191424149466,0.12769429544435168,0.2677461228148712,30,24,70,64,0
0.0007965540090025403,0.0018454371851354993,0.12002733318547439,0.2674605682484378,30,34,74,67,0
0.000801909722785243,0.0017872051989632385,0.12690217960811534,0.25129594831756963,32,28,72,64,0
0.0007052647913932861,0.002066596011135643,0.10683324526083932,0.25766727362644887,36,24,71,62,0
0.0006622839224547314,0.0012334043533615798,0.07569503418157299,0.139771346650572,32,26,62,56,1
0.0007250027841886253,0.0010670142141352185,0.07597206912451644,0.12641681284603862,30,24,63,53,1
0.0007006249924195119,0.0012264782279742758,0.07311419771077603,0.12994600154930638,23,20,56,54,1
0.0006260189601453904,0.0011358796677310686,0.06514811145980112,0.11885395105281098,26,20,62,53,1
0.000606495559767814,0.0011238461942261434,0.06094549469733067,0.11230553429282021,23,18,66,54,1
0.0005617078615638279,0.0010609284621195328,0.056192656439661516,0.10597556574183525,20,18,65,55,1
0.0005355757168566198,0.0008085162676353218,0.055674627751002896,0.08570965740839007,23,20,61,54,1
0.0005029009249109966,0.0009861216508214718,0.05258405269099577,0.09584110138391404,20,20,64,50,1
0.0004700247729188423,0.0009055811941566789,0.05283234913950602,0.09675093398951186,27,24,63,58,1
0.0005969068447954059,0.00110843129659636,0.059875491767142255,0.11559356612009554,18,22,71,56,1
0.0005361145871880657,0.0012835975027641316,0.05801460861037939,0.14492426087635096,23,22,72,56,1
0.0005426398003533527,0.0012966346779937183,0.06548835343835267,0.15780100319667995,30,26,74,56,1
0.0005863768149727241,0.001373337558634403,0.06924616675044326,0.16800748276151775,28,28,72,53,1
0.0006389041491775986,0.0012627488805715312,0.07514393141000804,0.15690721374712366,24,32,66,58,1
0.0007647497109349738,0.0011489687336193155,0.0835372293308423,0.1407836619532286,32,28,61,60,1
0.0008043806363618774,0.001202621913014574,0.08785537280553668,0.1436156184769875,32,28,57,57,1
0.0008688595801122716,0.0012412723224422375,0.0984005982179726,0.1483652212282598,30,26,60,58,1
0.0008370996749996031,0.0013762265264916703,0.09955873578223146,0.16979346214713925,26,26,68,56,1
0.0007500217442849039,0.0014680797085407369,0.09673663855274353,0.16982683631743903,30,22,69,58,1
0.0008210764690472445,0.0013405369567516348,0.09716985017509563,0.15926738422522516,22,26,65,61,1
0.0006872655967235128,0.0013956687359186495,0.08838962358301668,0.17003073451544282,26,26,68,60,1
0.0007290080109992954,0.0014643013544445346,0.08788769548272356,0.15714346355127723,26,18,56,56,1
0.0006902895847220384,0.0015742849973203288,0.084137620753487,0.1633989846502949,26,24,55,58,1
0.0006627377539144202,0.0014786147804926222,0.07529320101471645,0.15619449706927188,22,20,65,58,1
0.002151503959757651,0.0005474841946361976,0.3910771374164136,0.09953064104796219,32,48,81,82,2
0.0021275870878858256,0.0005470330670384388,0.3799875097856132,0.09662079909183365,32,40,83,86,2
0.002118760044682875,0.0005460534180180546,0.38098161047533435,0.09714757971633121,28,40,83,82,2
0.0020770313347703135,0.0005117368158262601,0.3777858053784342,0.09682372216940255,30,52,84,90,2
0.001967311462363812,0.00048763553938686253,0.36132233808273895,0.09242186411405973,28,56,83,93,2
0.002045758535572737,0.00046821303593143284,0.39437972215881356,0.09762710633015548,34,50,80,96,2
0.002061230292470046,0.00048468206060062793,0.3810080016709922,0.09909527348942496,40,48,82,94,2
0.001892245692600858,0.0004791186342738914,0.36596591465882866,0.09792903262752364,44,46,83,97,2
0.0020761713281198034,0.0005240996323809572,0.37407815248029125,0.10336663523875211,40,50,88,91,2
0.0021475915942135455,0.0005663359830977089,0.3719338538599173,0.0985022040091126,40,40,85,88,2
0.0021933746845930143,0.0005949277268004925,0.38724129817179814,0.10491226003600525,36,42,86,85,2
0.0020427549898030593,0.0005977016172938003,0.3637864638875179,0.10265872012501279,32,32,87,83,2
0.0019488194965176407,0.0005451685302318836,0.32833387128184405,0.09296657892891048,28,38,76,101,2
0.0015494526098059716,0.0005007044898296299,0.2852056894578329,0.08911610350477081,36,38,77,96,2
0.0014472220090553935,0.0004492196499923411,0.24821512001500493,0.086323289740819,38,36,75,97,2
0.0015456175383935914,0.0004692151712063275,0.23555343863881423,0.08275591758120894,36,38,73,91,2
0.001424664725469076,0.0005129198456264582,0.23693457380609284,0.08993768310775599,34,38,82,86,2
0.0015004028706203853,0.0005031305320543379,0.2400409568587478,0.09292863664333127,36,40,86,91,2
0.0015716053152540646,0.0005179940218007223,0.25313511876888617,0.08812747476063185,36,44,88,85,2
0.0018250349190472867,0.0004891183363235633,0.28641537356359104,0.0919331052123143,34,44,88,90,2
0.0016531310688513243,0.00045286433181001987,0.2890764912407208,0.08781125564949534,44,44,86,95,2
0.0015756219421416524,0.0004476956105966503,0.3052380067055473,0.08510059651806805,46,38,91,93,2
0.0015557132167544694,0.0005041587834176264,0.30544407952413444,0.09446147954875406,48,34,91,95,2
0.0017670839006199565,0.0005405743529790459,0.31770673631356033,0.10772644502559478,42,42,86,93,2
0.0005353969122011621,0.0018889539547889988,0.06255020281714235,0.271581276721345,24,32,63,69,3
0.0004833125934926205,0.0018573583537810938,0.06267136688964796,0.27159739998194304,32,32,69,69,3
0.000508978385913923,0.0017735716326387266,0.06500532184090334,0.2664413580683876,26,32,71,68,3
0.0005075025570179411,0.0016855013494174265,0.05783714433503063,0.24753454076028658,24,36,74,70,3
0.00045916537469352733,0.001783575162794085,0.06376702459251275,0.2547178121532016,32,32,68,72,3
0.00046247734089794956,0.0017083685520310572,0.05984817168838335,0.24163213121073787,26,36,64,76,3
0.00043099036478406056,0.0018598848590580682,0.05601788645518133,0.25022813617863504,30,32,65,71,3
0.000461872315240571,0.001787882279718833,0.05653472575557878,0.26398211318225406,30,34,68,67,3
0.00046242265358286593,0.001912983610530449,0.05519875773462122,0.273432892659351,24,34,74,63,3
0.0004186595758986067,0.0018046934151485744,0.05436968966597664,0.272837108192187,28,30,70,64,3
0.00043074590146772963,0.0018438342316844552,0.05617945049070292,0.28008520791435254,24,34,73,68,3
0.0004125078234125984,0.0017912330167230092,0.05582265860332649,0.2766254972970608,28,26,72,68,3
0.0004192702690765358,0.0018723255968551282,0.05397413266910214,0.26359096951586225,28,24,71,69,3
0.0004570782741582899,0.0018813027461851144,0.056935847685302146,0.25708287315696143,41,24,76,70,3
0.0005038614006167115,0.001798109212012136,0.05754475948760325,0.2344809150433381,36,34,73,67,3
0.0005631131564816757,0.001882986014479853,0.05813911925777847,0.24332872179410955,29,26,70,64,3
0.0004871929193037894,0.0018205781746710801,0.05624534923389006,0.25945234885079277,32,36,72,62,3
0.00049046568794436,0.0021984264407165846,0.05693376571604431,0.2654870259346452,32,26,66,64,3
0.0004813451468630247,0.0020505963792379223,0.05434877540567771,0.28507936455512045,26,26,62,68,3
0.00045359966305889767,0.0019900621811886573,0.05356362816476261,0.2650400741609517,30,30,70,69,3
0.0005562722649602451,0.001939477229894517,0.06265374865254152,0.2528022157247414,28,28,69,70,3
0.0005470992844805688,0.0016577057253828332,0.06358894413825804,0.24027514219973176,27,30,64,73,3
0.000564797497459026,0.0017381303480385505,0.0671391665038926,0.22875639481266155,26,24,69,73,3
0.0005600870779205293,0.0015413744782815137,0.06428399527399842,0.2237759744021101,26,32,65,72,3
0.0002151405727269209,0.00029369432488881875,0.015713482497497645,0.032240965776926964,20,18,24,46,4
0.0002156232575122243,0.00027906669488090544,0.015888480263471838,0.030406380219891768,22,18,22,46,4
0.00020690299109683234,0.0002921258443912393,0.015692527962388767,0.028970368904205086,20,18,24,43,4
0.0002058012758819443,0.00025838545911081433,0.015629684262845476,0.02478276914669871,20,12,20,51,4
0.00020355138507068522,0.0002394507016920626,0.015569245416029175,0.02186633154531461,20,16,22,56,4
0.00020302038124821078,0.00024975255746264213,0.015583084010183396,0.022877903055225596,20,18,20,50,4
0.00020686811494675751,0.00021748256075877127,0.01577265572640272,0.023013337552383686,20,26,20,54,4
0.0002073137243800796,0.00020805638030408618,0.015585976648126255,0.0231269406600617,20,20,20,57,4
0.0002089563205467889,0.0002005017910094452,0.015409412062437232,0.022872064265930213,20,18,22,58,4
0.00020937142619355294,0.0002116301659858799,0.015407526446502205,0.023120894446671824,20,16,22,56,4
0.0002722415436924512,0.00022580521673185738,0.017492304872977506,0.022140560841144647,20,19,22,61,4
0.00029393748687585964,0.00026751820923216703,0.01842453639884736,0.027158991446550346,18,18,22,44,4
0.0004300200172841973,0.00045401208689387816,0.03176401527759593,0.04475772345315057,18,18,39,45,4
0.0005157950473997377,0.00048571409906392985,0.034246325960986125,0.05153451919911106,14,20,32,44,4
0.0004957804921864175,0.0005086336728658026,0.033326004069468215,0.0513159426503515,12,18,37,46,4
0.0003850690269982177,0.0004569116134148998,0.02122686622022702,0.04975342066236768,12,20,38,55,4
0.0002344299280733561,0.0003683841474481803,0.017226243787592514,0.0376548654895197,16,20,36,58,4
0.0002502623969550274,0.00031780157648344143,0.017282345538536185,0.03479821729541618,16,22,32,61,4
0.00023540882258521825,0.0003293869728883245,0.016747769167932983,0.03632638587095786,18,18,32,60,4
0.00023102396720319475,0.00029509886358103463,0.016469592638900278,0.03496426478818465,20,24,30,60,4
0.00024388758241093464,0.000328190579524177,0.016332775212449902,0.03665721392344296,20,22,28,60,4
0.0002524988175650643,0.000296051920018673,0.015973645281533652,0.03278314487405138,16,30,27,65,4
0.00024134302999759573,0.00028533609383627384,0.015998226836325034,0.030488415292994123,18,26,34,62,4
0.00024104422176788164,0.00024057251493141737,0.015619800294127153,0.027320229032072343,20,26,32,69,4
