f1ch1,f1ch2,f2ch1,f2ch2,f3ch1,f3ch2,f4ch1,f4ch2,Category
0.001467838653842821,0.00301237383621206,0.21208612266285692,0.3827820234411311,24,18,73,60,0
0.0021832976524803487,0.004837126899410701,0.3086739787713822,0.5777388212977969,22,18,72,63,0
0.003052400644160415,0.006351559631466188,0.43814133522564697,0.7809712817647099,24,22,66,58,0
0.003737185057243851,0.0067067027889693535,0.49588203520968016,0.8503314909208657,22,26,64,62,0
0.004031462659643223,0.006636282225471452,0.5698802797710825,0.86226631828902,24,30,66,56,0
0.003916203128525312,0.0065893146040655924,0.5248461708879737,0.7947323155474875,30,26,72,60,0
0.003806940140978228,0.006070082269956168,0.5147436611077237,0.7588461681421892,28,30,74,65,0
0.004116065967289341,0.0066377780135234024,0.535938291300534,0.793541411609117,26,30,74,63,0
0.003873880581017143,0.007080831150340971,0.5321925899433957,0.87585700838302,24,24,66,58,0
0.004487858013345916,0.00757935572833897,0.6476962886568831,0.9430057873944165,26,26,67,55,0
0.004583894532240097,0.008626770853414996,0.6642127334087778,0.9871083966938135,28,24,68,54,0
0.005466934817752373,0.007934572522467398,0.7943287205422761,0.9772116099622041,30,24,60,57,0
0.006609199776648707,0.00817521472785812,0.9206905696838209,0.9909673461686318,34,22,57,62,0
0.007534133730495527,0.007154265267747231,1.0563974209879972,0.9493709830606119,30,28,63,65,0
0.007939674259259453,0.005899845224767538,1.076363496617578,0.8575524275092017,24,28,65,67,0
0.008064916101211886,0.006172066363458564,1.0519146664080066,0.8001890291750074,16,20,68,66,0
0.007942327460976775,0.0065714057186418515,1.0113888383300866,0.7832427577923726,18,32,66,60,0
0.006418039949334412,0.005901979866925185,0.8562651949014027,0.737604196692251,28,30,69,66,0
0.006165654220323628,0.006284571430215962,0.8956910010615978,0.792226505089761,32,38,70,60,0
0.006669465508359527,0.006485470539957613,1.0070700123310152,0.851535970515048,32,28,70,56,0
0.006576964684095727,0.006210245014127428,0.9828398978466603,0.8643988189388081,32,36,71,63,0
0.007194242932571557,0.006612022129474669,1.0041935672468785,0.9279463487376589,26,38,74,58,0
0.007357150887595144,0.006586142669352337,0.9640288789972015,0.8829637357004374,24,36,65,63,0
0.0064233026920030726,0.007012895083343465,0.8031686501904195,0.8964418610658593,30,30,66,64,0
0.006045353458371114,0.0066061465473783035,0.7372127705132885,0.8304569666531193,28,22,66,67,0
0.005744703999583217,0.006880683105422962,0.7625886293484796,0.8054068693014148,26,20,67,65,0
0.00508285281480538,0.0072527688409469325,0.7123099628585171,0.8352064907128338,28,24,70,65,0
0.005387455140913535,0.005967956130929466,0.7341041773593753,0.7584708257733943,28,28,63,61,0
0.005970119723093887,0.005871068130035376,0.8191762055109819,0.7402870778413627,26,30,66,59,0
0.0053223926242733244,0.005704911009386312,0.7160692719133195,0.6792280284522775,28,26,64,65,0
0.005512836120821668,0.00490698920950993,0.7457682270641881,0.6270502564556315,20,24,62,67,0
0.005441961694740962,0.006514267778056075,0.7714617881216588,0.7416831250739866,24,20,62,61,0
0.005560572780779114,0.005914480425178056,0.7923086366096016,0.743963484554464,22,18,62,55,0
0.005469470201884488,0.0066137959229726805,0.8072795855689483,0.7349875753538146,28,22,64,56,0
0.005643734137339204,0.006391513163102631,0.8060675990487174,0.7271645030564969,24,26,61,62,0
0.005087240862623112,0.005778498635440934,0.7326736845520191,0.6725944405610355,24,30,60,58,0
0.004584493206928908,0.006050853787267285,0.659596151884197,0.6175366656864106,26,28,65,60,0
0.004247025974689737,0.0048062702966544055,0.6000915392538845,0.5560078705035598,24,24,63,56,0
0.0036900769976518327,0.00505874357890311,0.5550271346290889,0.5447672561202613,26,20,68,52,0
0.0025797790588949665,0.004373299216034334,0.4139430886883427,0.4345638678039072,26,16,74,67,0
0.0017080733378524683,0.0031454479268986984,0.25388642093043096,0.3163383737632775,18,16,54,88,0
0.0009169029652494629,0.002344406119911362,0.1362877109130171,0.21355937473864492,10,8,83,100,0
2.8070297511355616e-05,0.00017171143065193014,0.003601234294804315,0.014659543006094428,32,22,80,52,0
2.7974903157908412e-05,0.00017600537268844103,0.0035046053546212304,0.0155143503520711,34,21,80,52,0
4.825847908758593e-05,0.00019785234005572117,0.005441571864652787,0.016806794560914787,30,22,75,52,0
9.68850917682041e-05,0.00023625241834335914,0.01151732710334117,0.019842350701356728,14,23,62,54,0
0.00021358149800165347,0.00030158185736500845,0.025377349603772574,0.03254660131479488,18,26,57,54,0
0.0005273297607366167,0.0007305679530082719,0.06304003969997281,0.07560894186170404,16,22,68,57,0
0.00013287340972957954,0.0003759992217363863,0.018514167120075295,0.040711320767280554,24,24,67,64,1
0.00012964678399936483,0.0003704455523030294,0.017279471976164355,0.03799906875296969,22,20,68,60,1
0.0001133650154810947,0.00045227404231561636,0.015290239622381368,0.04342887957776455,20,18,78,63,1
0.00012942862377707557,0.0006331030280240687,0.016300309843628437,0.06281961554159812,20,18,80,51,1
0.00020019603344240556,0.0006517642441158572,0.019124684773743888,0.06486729741525216,14,16,79,50,1
0.00041002974096565197,0.0008239314925268662,0.03946841817465392,0.08042966477033989,12,20,67,52,1
0.0004876648931600699,0.0009919844285939663,0.048195307621409174,0.08830669663815674,12,18,64,56,1
0.000713112606939517,0.0011438309456361295,0.06497715859185534,0.09435615108006755,18,16,57,55,1
0.000826351749539608,0.0013095276033566897,0.09539905510264216,0.11306112820621413,24,18,61,50,1
0.0009363082171098408,0.0016151910620155502,0.11205604502916988,0.14475455092969444,26,16,57,55,1
0.001335992364950554,0.0018288022138471896,0.14611979050160034,0.19216794724208813,26,16,61,58,1
0.0015463644800164523,0.0022269855271834778,0.18020158473674164,0.22290384479033257,24,20,67,52,1
0.002648687227915621,0.0028279635351596997,0.27632986415297384,0.26986042488597917,16,20,58,51,1
0.003838047372242895,0.003275811360336869,0.4098823803211487,0.3481317988712098,18,24,55,44,1
0.0047581690615638664,0.003547229943164673,0.5469341747596532,0.38928364333882554,24,24,57,43,1
0.0073203398174985605,0.004412736591048702,0.7901530105429799,0.5276132576133656,28,22,56,47,1
0.008156525544285144,0.004684615746810757,0.9346545741680792,0.5765373946908429,30,26,60,54,1
0.008928732710711016,0.006233778754671958,1.1375707588437822,0.6633325354105348,22,16,67,53,1
0.009072709714804459,0.006948536965509683,1.2478164036968065,0.7309227950465225,26,20,65,51,1
0.008741372787151454,0.00652007478576769,1.3405640347794583,0.6964834347047042,32,20,68,54,1
0.009541208761045862,0.00699963413321138,1.426652222122585,0.7340287595837364,28,26,66,56,1
0.00978360106680737,0.006875827490153174,1.4195118675679952,0.7520573278171248,28,24,67,59,1
0.010066691667158368,0.007457762914314184,1.4850982150731256,0.862459705191249,32,30,65,55,1
0.009799194444541325,0.008813323807524627,1.414711219693918,0.9829954944571005,38,30,71,54,1
0.009392185831556446,0.009208168407578602,1.3500962287438945,1.0665042757985788,34,28,71,49,1
0.008742345563834313,0.009272242747012409,1.3537924529405068,1.1177295782058443,34,26,73,53,1
0.008602356452739738,0.008962722135478045,1.3085627882146975,1.0734820510415648,34,30,75,58,1
0.00763382981363746,0.00936027019716903,1.2128710730961807,1.0439222784094222,30,26,80,58,1
0.007555113354610752,0.008129654078627058,1.2262307685709273,0.9476035677096459,34,32,78,57,1
0.007247944487033902,0.007613992998875654,1.209931296325548,0.8595929560647597,34,30,77,59,1
0.007306773097171471,0.006709210026895927,1.2033616803510407,0.8011728439330884,28,28,77,60,1
0.008215151610524518,0.005760849330140709,1.266715366857016,0.7052132130984619,30,34,68,63,1
0.0074281163304076745,0.00548606467594856,1.148998339536385,0.7091069295742319,28,32,67,72,1
0.006938038544114623,0.005763870747607586,1.1170409032904398,0.715721486192279,32,26,69,64,1
0.006682415838568038,0.006232233749762895,1.0695449971865059,0.6782720907262709,32,22,73,65,1
0.00639719148259127,0.006076974569998355,1.0214850590391789,0.7067479195818649,26,30,73,57,1
0.006828001621603297,0.006053623267311941,1.0585363220965347,0.6853176640898092,28,32,69,51,1
0.00595480537625075,0.007068680200159812,0.8908830686441631,0.6639106186445446,22,28,70,49,1
0.0063040524060010775,0.007585181199505726,0.907479695135103,0.6809278713291483,24,22,65,41,1
0.004534920371247848,0.00659022141929218,0.6262144477163748,0.5641464672946893,20,20,59,50,1
0.002929384026934666,0.005276700301236986,0.4254682826638185,0.40883596671367284,14,14,72,53,1
0.0017742929596762178,0.0027796755105884917,0.2518560238764407,0.2647014828545025,10,10,60,65,1
0.00026555921730204453,0.0006722495063259238,0.034419825329483233,0.07354997967128091,20,16,67,68,1
0.0004363225409990835,0.0009652287431207583,0.04685408565986171,0.0864904909817221,20,18,61,71,1
0.0009132523011220689,0.0010819487732684377,0.09982961270148948,0.10691652287257189,16,24,67,76,1
0.0012687734209022993,0.0011906328877719623,0.14460897666903963,0.1220538074169115,20,28,68,72,1
0.001716244008782999,0.0013789008205331097,0.19422139783722908,0.15255921161993624,28,24,65,66,1
0.0022090325569159024,0.0016478931647985326,0.2749802691314384,0.18564979328688058,28,28,60,61,1
0.00023920896187896616,0.00027546970872475973,0.03125802174602748,0.027906303232753265,18,18,68,69,2
0.00034928320979262515,0.00035912436115850225,0.04959864622723094,0.034111088179508454,24,16,58,58,2
0.0006351694837526425,0.00033152558844411033,0.061452376431343346,0.03253304919970079,14,22,48,60,2
0.001082083332287529,0.0003214820201467978,0.13412862280495821,0.037757729023009654,12,26,56,57,2
0.0015718395717928915,0.000338692043408938,0.1965066796141181,0.042194665535118935,14,26,48,64,2
0.00197455073644505,0.00030626068350624264,0.24263627483727315,0.04360219890514163,18,29,50,70,2
0.0024473917202278896,0.0007095726312163183,0.30770168188470076,0.07015306178611981,22,12,60,76,2
0.0029428689559212046,0.0010554615888370119,0.38707914489273304,0.096148039082517,14,10,68,70,2
0.003948609809958038,0.0012873476207074974,0.5562400946557369,0.12094415672687349,14,16,74,63,2
0.004591020646033404,0.0014845115724538092,0.6599778246682162,0.14104562036137624,24,20,71,65,2
0.005816728282257318,0.001199157589102739,0.9078381914247214,0.14533200412745811,28,28,72,66,2
0.006345373496856596,0.001030996983279108,1.0156279739921898,0.12838092955053018,32,28,80,71,2
0.0062617452658115915,0.0011698429188972813,1.0666538212727927,0.12888270151647027,38,24,78,80,2
0.007342256861129839,0.0012639447084118254,1.2352414802000076,0.12379587242266159,36,22,73,84,2
0.00689555964863038,0.0015051335084533535,1.1506572427266228,0.13480018922485576,34,20,66,70,2
0.006671311227898399,0.0018316054508358507,1.194386054121132,0.16773994619711935,38,22,74,66,2
0.0067811284976615205,0.002030265840419776,1.2556488299988087,0.16950558648308667,42,24,79,68,2
0.006500760976950597,0.0022400038064779326,1.303956699800407,0.199723062436551,42,22,84,61,2
0.006797948764815462,0.0023993593350388337,1.284252109674913,0.19907376496386744,36,16,87,63,2
0.006290665014254342,0.0021749867704062716,1.1656663741662903,0.17735687243418674,36,14,89,68,2
0.005804319450320592,0.0021812948685556903,1.0418113659659003,0.1703954132787735,34,10,89,66,2
0.005145187429935704,0.0016822180703139104,0.8741627769962481,0.14203639221877476,36,20,89,72,2
0.004883470335008854,0.001534305436406044,0.8927364709952091,0.136823419716537,36,24,85,70,2
0.004847883974845246,0.0017287727865975561,0.9025243174640534,0.141593971014251,36,22,75,66,2
0.005111316175288741,0.0015022233429831556,0.976025629793805,0.1469168279256074,36,20,74,68,2
0.0052509313692118975,0.0015836146213922969,0.989798311540889,0.1419261935971094,36,18,79,65,2
0.005226598233370524,0.0014077876770550043,0.9494600260177521,0.1366729545643902,40,18,83,75,2
0.005368127740514954,0.0014055071750291729,0.9426622521253939,0.13650148717555835,38,22,94,75,2
0.00549889449426372,0.0015660618298453518,0.8632193537785827,0.1369575675756245,34,20,92,64,2
0.005966331200149897,0.0020942079416098043,0.9266357921442151,0.1525757492962901,32,10,83,60,2
0.006093864070938216,0.002260262556044439,0.9898631178556356,0.1590213728415982,32,10,75,64,2
0.0060797994526070945,0.0023619180452833497,1.0046176161461242,0.16456295231849666,32,18,80,57,2
0.005753616018331618,0.0019155500037018377,1.0002985525675216,0.15830940740590352,30,20,81,63,2
0.005473823399600507,0.0017010179398551542,1.0066113811316493,0.1651248422779194,32,22,88,65,2
0.005393700663684629,0.0015878845694895546,0.990767271647687,0.16409723493539008,30,28,89,70,2
0.005587786386023872,0.0015455389157950751,1.0137990210129633,0.16190335609808196,36,26,82,73,2
0.005538889364587164,0.001666232178143908,1.0250211551344384,0.1711230230342596,34,28,82,77,2
0.005886203346972768,0.0019393896313228537,1.1007037387097656,0.16764862766416117,42,20,83,75,2
0.005649741934281845,0.002181800434913072,1.0067881037255773,0.1775901739857534,40,20,85,74,2
0.0052209349737081375,0.002339742585747759,0.9740708952796452,0.19764740407554848,42,18,79,61,2
0.005376319232327458,0.0023559121781118707,0.9119245406406253,0.1938733940600752,36,20,77,61,2
0.004459734584663079,0.002117353218979381,0.7402395113782779,0.184791616828045,32,18,73,56,2
0.00500799392198748,0.00233867873560396,0.8371439487905481,0.19178252972803786,36,22,70,50,2
0.005553008454098232,0.0026153488574548432,0.8882354489985338,0.18262067156410328,30,18,66,46,2
0.006063130200287509,0.003288164859084894,1.0247711313672596,0.20204071190702885,32,14,69,44,2
0.006721683733503997,0.0032736497805999814,1.1621209717699355,0.21571542691440862,30,16,72,42,2
0.007151703824347112,0.003050020386507567,1.1875615291675885,0.20127354253157273,28,18,76,46,2
0.007883106091410826,0.002907218021330881,1.3005049142354321,0.20975032493105908,36,18,76,47,2
9.861885412783936e-05,0.0003070990450751505,0.009046013037721966,0.03009127752665079,19,20,73,56,3
0.00012072986513439503,0.0003615143409875423,0.012524761684667717,0.036477670360522525,16,18,61,60,3
0.00019692425778820928,0.0006257399698657517,0.016922325484280958,0.05691427000617707,14,14,54,62,3
0.00031674858952043914,0.0010000289491741018,0.029423976847748206,0.11306342200757273,20,14,59,63,3
0.0004193099559485833,0.0013448717892932723,0.037867337337422965,0.14524378657465367,20,16,55,67,3
0.0004347468470217946,0.0020740332355124627,0.04458867108084589,0.24354949258183842,20,16,65,62,3
0.000900437986101972,0.0032432252573651858,0.09692973022331978,0.36569518510071475,12,22,67,61,3
0.0009139821004456685,0.0037668293663888314,0.09916404462805159,0.41870504200806424,14,20,77,61,3
0.0010942123185575315,0.00597856140345456,0.1224168275110598,0.7346208863506049,12,24,77,59,3
0.001301819212837173,0.007339952276924478,0.1572904821799637,0.9508243416447505,16,30,76,61,3
0.0010440885680352134,0.008323557647988582,0.12551634980598492,1.1450560389226,18,36,75,65,3
0.001549946198102247,0.010107575683918957,0.17256140717607996,1.3511363084211738,14,36,65,64,3
0.001594930689848599,0.010909322621734791,0.1829767813887882,1.4580932700190403,18,36,60,66,3
0.0016759414532453271,0.011181233877437304,0.17484871080274567,1.505656719839592,18,34,59,64,3
0.002067916590922278,0.011599850719406146,0.22818329175186133,1.5501017753761481,16,32,56,64,3
0.0025170572490996073,0.010551467319239918,0.27451955146095497,1.471381915722202,14,34,55,66,3
0.002838199509354705,0.009469209489482516,0.2824435728315148,1.3744468579277722,12,34,58,68,3
0.0027153275895216355,0.008987170554372478,0.28184005118619415,1.300315082186928,10,38,56,68,3
0.0026614581652360803,0.008341328359880577,0.28140103388168325,1.2235582129561824,14,36,58,65,3
0.0021320671335831143,0.008664079240276096,0.24348969569909923,1.2929261881161904,22,36,57,63,3
0.0020177668608975107,0.00923056089817207,0.2431148530612701,1.3124952161748253,24,40,60,61,3
0.002021469191263366,0.00975355704127736,0.24415072642551675,1.4034259741696635,24,32,66,63,3
0.0017072378841187445,0.009886538613681333,0.21843156079262632,1.4349968083515083,26,34,62,64,3
0.0012284250889908598,0.0097074708117935,0.1840270422808067,1.4769708857068815,28,30,70,64,3
0.0013252728307804858,0.010390813786397548,0.18099894503312103,1.5754234819235013,20,34,73,65,3
0.0012569952392423656,0.010402712623689416,0.17088256138343835,1.524430962075901,26,36,68,63,3
0.0010994881230099777,0.009188201689175994,0.15759716344191338,1.4566401254283516,26,34,73,65,3
0.0012145265478391463,0.00940310126306382,0.15736515776136115,1.456310617076705,28,34,71,58,3
0.0009186537827581377,0.009393744851548263,0.144539842678685,1.3363374566533541,36,32,75,56,3
0.0009457576696951725,0.008888493540671241,0.1492022059273115,1.3228389460781562,34,34,77,63,3
0.0008990104824099865,0.008460888174154385,0.14052670999987688,1.2148123607022316,30,28,75,63,3
0.0008982756383282428,0.009055695776910672,0.13807660006826003,1.2387483081394626,32,28,75,62,3
0.0007639778304112596,0.008705149268753104,0.13309022233110251,1.1821658734904483,40,30,77,58,3
0.0006873123594423022,0.008566985421518368,0.12573063169104923,1.1978939653390122,40,28,81,60,3
0.0007223666896498275,0.009467860184494071,0.1306900467976925,1.3169735498005404,40,32,79,62,3
0.000791545792712784,0.009773822643451648,0.13251515200154176,1.298811649229709,32,30,77,64,3
0.0007913967714926056,0.009173249926417569,0.13852170988306886,1.2391768585706657,42,28,78,61,3
0.0008749409481344202,0.00959361293686488,0.1516442935975105,1.2048976866819805,40,24,79,61,3
0.0008311857105983448,0.00908355284261563,0.14881546886698493,1.2241023092872767,44,26,79,63,3
0.0024017178822302193,0.008798038195657904,0.20012636091238384,1.092497875843332,8,24,70,68,3
0.002722459532064001,0.007383592481116013,0.21328426529492622,0.9299580477962556,14,24,61,74,3
0.0025695906996570685,0.008379582168235677,0.18413194947487108,0.8245172939463865,10,22,58,59,3
0.0009248469537575408,0.0060489425498800285,0.10798487207851927,0.6589818784900657,16,14,58,57,3
0.0010193095159452999,0.00814754677873872,0.12158603701311507,0.9257293476691422,20,20,75,59,3
0.0008671480247777602,0.010478866694567846,0.11758322280348128,1.268263673202705,32,28,76,63,3
0.0009380964699174349,0.010444784340132518,0.1377330636818561,1.387021834708907,32,28,79,69,3
0.0010913948762653232,0.011335344094102917,0.15669059945450353,1.6096500476243285,30,30,75,62,3
0.0011975678844779825,0.010908965221873589,0.16941361557437998,1.5927642174337353,30,30,71,56,3
0.00036386126227520957,0.0007267881608183437,0.03835532342187343,0.07699604467910014,12,16,67,66,4
0.0003792649583990533,0.0005748294596064681,0.039678035064098977,0.06574033181750497,14,24,64,67,4
0.0002249655345365217,0.0005453791981674482,0.02715074550269823,0.06286271005930548,28,20,66,69,4
0.00023868632551277933,0.0004893702914615434,0.029841863993815613,0.06194548605222834,26,26,62,62,4
0.00022638561445763986,0.0004750277343810954,0.027574822982267252,0.06084000930105173,20,20,72,60,4
0.000227126066968467,0.00042602020705753696,0.024975342141584752,0.052292932998504835,22,22,70,59,4
0.0002074653895254457,0.0003660701495715204,0.02031699535688816,0.044640881434534714,26,30,71,68,4
0.00018108539154843982,0.0003473096899400397,0.018929030544062694,0.04260514351784616,22,28,64,68,4
0.0001925184090927259,0.00031426490470919046,0.019137404385581917,0.04022568052063378,16,22,65,62,4
0.00015016693047298677,0.00032714753518977413,0.017663578305154318,0.04104518728346923,18,24,65,59,4
0.0001453341268794408,0.00035578348401913497,0.01786038578235393,0.04172082118673754,16,24,64,55,4
0.00018449453097496815,0.0003883683210535007,0.021520612869488552,0.0431037816789412,20,22,59,53,4
0.00015556860717464734,0.00038338659849448004,0.018880199853363054,0.038508407343176926,18,22,66,51,4
0.00014467773258834907,0.0003918564165486945,0.017194923085488298,0.037000637009823506,18,20,80,55,4
0.00015233606341671463,0.00037287161628412924,0.0175753254705214,0.035668489518669355,24,20,88,62,4
0.00010619526453026448,0.0003491474416208285,0.01266164888426087,0.03227207404990315,26,18,91,64,4
0.00012030327778866081,0.00034964304781957877,0.015115171320541248,0.030410543345484386,26,18,86,63,4
0.00011493370807389304,0.0002753765372928344,0.014161499397692132,0.027699981084412153,26,20,81,61,4
0.00010546108249694,0.00022777324434817108,0.012458214130411387,0.024475952211897124,26,18,81,62,4
0.00016674434675406882,0.0002068543195141826,0.016690764148985775,0.02248766846578717,18,22,63,62,4
0.00014443822230167353,0.00018945696447138813,0.013614013431998365,0.021444447250007513,20,28,65,70,4
0.00013929564393090613,0.0002335436257034064,0.013600344938886316,0.023806097552765037,12,16,67,70,4
0.00014376116697167778,0.00021856450155435984,0.015496839755800686,0.023359501974603267,18,20,66,66,4
6.942333135538034e-05,0.00021321689477145372,0.009018062530493292,0.02303988556974864,16,22,80,70,4
7.324955067276908e-05,0.0002641089192806453,0.009024985100220054,0.02483965855854176,19,24,73,60,4
5.783168087796847e-05,0.00023140551441980128,0.00787256578347141,0.022840463423943292,14,24,90,57,4
4.488722355136671e-05,0.00022675072039629276,0.005318366750334495,0.021642690100587603,25,24,93,54,4
0.0009116585628041318,0.0023695205506945828,0.11125765116792304,0.1792757928631611,12,10,62,51,4
0.0017647833014110804,0.0036426548005605956,0.23203817899718432,0.323534334013029,12,14,62,55,4
0.003351619698817889,0.005277791822103731,0.4709129049694221,0.4840850552625435,20,18,74,51,4
0.004693426655020619,0.005517289429241151,0.6487674679850947,0.5564474092434807,24,24,72,52,4
0.00510915686639099,0.0056328487241829196,0.7087786659476639,0.5368562381610964,32,24,77,50,4
0.00530831139165791,0.004835405505618514,0.7311780148793047,0.43272793175486035,32,20,71,49,4
0.004584982270300128,0.00382532040004892,0.5797236560293288,0.3271955939684793,32,14,71,57,4
0.0038545437244247565,0.0027018963262186424,0.4472396604894387,0.26282740063792076,28,26,69,57,4
0.0036808849377868136,0.002613487959674365,0.36659694169372414,0.2614902553701472,22,30,61,62,4
0.002225803973993261,0.002440300319619902,0.25943669399869573,0.24110953812487962,22,20,62,65,4
0.0013016317183271175,0.0021671194427280243,0.18192237207719825,0.21985503749203264,28,18,62,63,4
0.0009277251383772989,0.0018961434152848441,0.11585006201694024,0.18954093073486158,24,20,62,63,4
0.000589628363414984,0.0013772286768542416,0.07964403714465149,0.15432774959879095,28,18,59,64,4
0.00039546476788686303,0.0014285597610276617,0.05028452599413825,0.1644262786453795,20,22,75,61,4
0.0003494245611263768,0.0013124702528070787,0.0436279410720706,0.14426061791736947,16,20,68,58,4
0.00045394608546011587,0.0011989721067336852,0.05095174121018622,0.13312180132740875,14,16,66,56,4
0.00032224780138794006,0.0011696010851434627,0.03892194419528241,0.1272514336179757,14,18,72,64,4
0.000391038245329851,0.0010322342523077918,0.04491993096540237,0.10767437359689626,14,16,65,69,4
0.00038121014905237417,0.0009120362449305193,0.044516132040687606,0.0980272255567828,18,12,67,66,4
0.00026855565703971313,0.0006834543268374714,0.03383656320533238,0.07814563584743946,18,18,70,76,4
0.0002843195910728831,0.0007512825200075592,0.037952548568117035,0.08155336724864139,22,16,68,71,4
0.007134215657495435,0.00853572107418506,1.1606022498949327,1.0172502214030115,34,20,66,60,0
0.007984923345886623,0.009398074841621864,1.1858129210988382,1.0126468752391384,36,18,64,65,0
0.008657760556122407,0.00860647905636038,1.2635567123624833,0.9335070232044683,28,18,64,67,0
0.008016054378900737,0.0096948271608559,1.1454060584030605,1.0042772955774026,28,18,64,59,0
0.00816547167741668,0.009693554921049579,1.1865940476046843,1.0216792784722262,24,22,66,55,0
0.006874714281663261,0.008353044980040025,1.064559625996482,0.9758174904882141,22,24,66,55,0
0.006432654871294213,0.00738146391020389,0.9486849357586379,0.8567538585087264,22,22,68,58,0
0.006275585484896704,0.006720758037383538,0.9487546222641218,0.7542377459775005,22,20,65,53,0
0.006392119801470677,0.007091292136650115,0.8732178981935157,0.7415420696690316,22,18,69,57,0
0.005294061389455482,0.005420931009040064,0.7001761804355988,0.570738883344784,20,20,56,56,0
0.00401782586605995,0.0039057046545565386,0.467721330107252,0.3906192115191759,18,18,43,44,0
0.0025608380100506116,0.0031307299284006065,0.2910075925025813,0.26351593547998564,10,6,33,32,0
0.00010295061158924207,0.00022068505616335978,0.01124025597419304,0.018786543462201117,16,21,64,56,0
0.0001070795878963534,0.00021922783378158656,0.01257043457768225,0.017864032732523235,14,24,75,54,0
0.00012072066184297613,0.0002157474840574575,0.014373877476125934,0.01779127089555167,18,23,73,57,0
0.00011468723924162092,0.0002174382991207199,0.012933931677786214,0.016989209525483065,18,20,62,59,0
0.00046656631382160614,0.0004285652023751055,0.031866188345129255,0.03358264335148206,8,18,54,43,0
0.0005181089748506969,0.0008824574184841002,0.05606790060465688,0.08541270968077677,12,14,58,39,0
0.00091347265508905,0.0011967215752358958,0.10447043786201154,0.11641033064340384,12,16,63,41,0
0.0011794241111111662,0.001692691600385077,0.13663220904779783,0.2023976592441033,14,24,67,50,0
0.0019126006298410521,0.001871189149865092,0.20840976412066456,0.23916988843760206,20,30,44,56,0
0.0019102521875512348,0.00251782987446525,0.2518512550626755,0.2707514218609224,16,22,57,56,0
0.0021107602062751768,0.0027164408898577735,0.28457019078438706,0.30661457232318934,26,22,60,57,0
0.0027916384222233122,0.0035010008026114254,0.36642728668692304,0.3760791795626817,26,18,62,57,0
0.0031777485884131717,0.004541066930648711,0.4317862337982226,0.4789126136270389,30,22,66,59,0
0.003627223037716952,0.004399762438373229,0.46426501988891566,0.512563840235216,28,22,63,66,0
0.0048305879011243955,0.004842876339503666,0.6032376895941706,0.5948390238374852,24,24,62,63,0
0.0049866847035816755,0.00491139210039872,0.6236441772444482,0.5966779310891356,28,26,63,63,0
0.005281817274729208,0.005731393816862776,0.6796937404341031,0.5970745732705246,30,22,62,59,0
0.006097721689320292,0.00607590244816038,0.7375266843071123,0.6213745657576561,24,24,62,56,0
0.0058679740276717995,0.00690333069749322,0.7058508451953435,0.6796419673927312,20,24,70,56,0
0.0061875502189133015,0.006458877228221134,0.7630456353818487,0.72140752165953,24,24,69,57,0
0.005653376725393672,0.006937723309727178,0.7245732079066886,0.8009835697421852,28,24,65,57,0
0.0050836619642472625,0.006830556879913942,0.7261552685248988,0.7999949469823303,32,22,67,61,0
0.005817086093730602,0.006648386208560005,0.7326926839082295,0.7932229642184521,28,20,62,64,0
0.005230000380552686,0.006440310739656493,0.6716044342384221,0.773800823468003,24,26,56,62,0
0.005760855834916313,0.00633417389286802,0.7222825125104028,0.7357118772436856,22,28,56,65,0
0.0051154741969810765,0.006069668321490084,0.6372554873251018,0.7295610812292598,22,28,60,68,0
0.004527277742768167,0.0053395505061071035,0.5516894050586469,0.6042779146250115,20,20,63,68,0
0.0033462204739908765,0.004667007938404414,0.4897733893992481,0.5698971734228906,24,20,70,58,0
0.0028080346872604413,0.0037999510559271403,0.44602590544868564,0.4736314762464094,30,26,75,63,0
0.0031079022550135464,0.0035791924847629465,0.49324797223647526,0.4647336787658324,32,30,74,66,0
0.002995271623613393,0.003968411142121946,0.4647079171493553,0.4688701051660012,32,28,73,65,0
0.0033008890452327537,0.003658147647184442,0.5171161276827981,0.4359306850694535,30,26,65,63,0
0.0029550405343472374,0.004272788500556456,0.4613776867906392,0.44523601793001427,26,24,67,68,0
0.0027245112742885933,0.004431204020632748,0.39653897329039695,0.45594936605074926,26,20,71,60,0
0.0031275880301196014,0.004506577532496047,0.4285722889304539,0.4569974927555767,28,24,72,62,0
0.0027763051129518794,0.0039561609892913956,0.3754267733648852,0.4519919669182786,28,26,68,63,0
0.00281454651327606,0.00393868463998211,0.3857573772228839,0.4383369090508837,26,26,61,62,0
0.0063314551463148575,0.005011927455340537,1.0245435967084051,0.6196174218982753,28,26,70,61,1
0.006525157642937729,0.004898560249543164,1.0063571429911993,0.6112138404581317,24,28,70,64,1
0.006607002342210934,0.0047956451451932084,0.9873886241453949,0.5670984219114917,26,24,66,58,1
0.007174578537250711,0.004413422807845819,0.9863411388786993,0.5785462342544395,22,24,67,63,1
0.006823742082627128,0.004279182368658331,0.9489772657563453,0.4953891332570815,22,20,67,64,1
0.006565405182259626,0.004342814999676862,0.9145870422840953,0.517340441394611,26,18,71,61,1
0.006798335052374605,0.00431285645621719,0.995344999851069,0.5583718008012878,30,22,69,65,1
0.007660808543020789,0.003968108610318483,1.058875578055263,0.5058810007520759,28,24,68,64,1
0.006914456076589939,0.004229940277874771,0.9757568849888393,0.5600866587338393,32,26,68,63,1
0.00658785856920911,0.004246609565192178,0.9251234011271068,0.537162308628012,28,28,70,67,1
0.00615937821807874,0.0037432677553849857,0.8183310137498154,0.4667530484754161,30,28,68,63,1
0.0053697325009804,0.004390575685274899,0.6498149882932667,0.5267586962436532,28,26,67,59,1
0.005319727963735663,0.0035500492572571895,0.7497166723582351,0.4529169073425706,28,28,67,64,1
0.0059789706273491805,0.004103051041407134,0.7972833126377151,0.4563040245759332,22,26,63,66,1
0.006367543308228291,0.004923396074478742,0.7883802940130528,0.5156367015921265,24,20,65,62,1
0.007285946157736051,0.00496889158700071,0.9058319257414352,0.5466091656388493,22,18,63,54,1
0.007220067126981818,0.004579994506050209,0.9477221789278308,0.5012989619220773,24,24,62,59,1
0.007217654929039547,0.004992630385143012,1.0395662363602818,0.5366143400019984,28,28,67,59,1
0.008167721781412347,0.004485440484400984,1.1883112141005339,0.5729996073783888,32,30,65,65,1
0.008414446013784438,0.0045855876669967585,1.1866741835830512,0.5930769406297117,26,32,62,65,1
0.007753001535060338,0.005521942101244146,1.1360771062412869,0.7025541484068474,30,30,63,52,1
0.007941225842251204,0.00602582623303057,1.0860995089548295,0.7198711021672594,30,30,59,58,1
0.008182991883601382,0.005850000668942196,1.01490289828486,0.699877624065632,28,30,62,57,1
0.007602759497785529,0.005838922757056247,1.0332318927581132,0.6824224019570497,28,26,63,60,1
0.00740412326417305,0.005604489691368924,1.0095874927231037,0.6496557103037368,28,26,60,53,1
0.006779421735207938,0.005650529870068949,0.9842752652406841,0.6287151105048254,28,24,62,52,1
0.0070106103719173194,0.0051856302400237085,1.0047462059047076,0.5330549321615755,28,18,61,55,1
0.006776028045319072,0.005085621331637143,0.9980457816532988,0.49022761667785436,26,22,61,58,1
0.00702614253377707,0.005061300099119062,1.0553652012404802,0.5045766512497473,26,18,66,60,1
0.007604675169261309,0.005114347960390553,1.044878285943218,0.5525148279519901,28,16,63,56,1
0.007217450646383309,0.00596158103762688,0.9937486445508521,0.5924819958265212,30,20,66,58,1
0.007206529055930312,0.006316104266594533,1.0226213719541264,0.5986169409548523,32,18,57,59,1
0.007505314240867354,0.006005430595253369,1.0357452706630035,0.5385943198533036,28,14,53,65,1
0.007595146121296855,0.004606014584752422,1.1325948235115912,0.4456477830594154,26,16,55,67,1
0.007576160329961034,0.0039614339199823675,1.1192766080143624,0.4559719807004178,26,24,61,66,1
0.008424019119745635,0.004174898400060909,1.135732182217532,0.4817156826491491,26,24,62,62,1
0.0076180303899318035,0.0037120258746489625,1.063070006460001,0.4524788501883234,26,24,60,60,1
0.006964946076202557,0.0041270183607245445,0.9734585874411873,0.47048337225351206,26,22,59,58,1
0.008452175290037783,0.0035028060549826866,0.996831621660433,0.41345255716194174,26,28,52,65,1
0.006603959741542308,0.0037695333291580735,0.8477403083395204,0.41046032249844877,24,26,59,58,1
0.006572295447578709,0.003740859531987038,0.8988041796446654,0.4113827696305026,28,24,58,63,1
0.006898961046566871,0.004099031462267843,0.9431712876668363,0.45633405763485796,26,24,67,61,1
0.006083038079300057,0.004261309993572845,0.8726638536142166,0.4680545450429597,28,24,70,54,1
0.006551000081311381,0.0039018146309666726,0.9451781645769769,0.47688200705611594,28,28,67,56,1
0.006098814273827723,0.004329029253573659,0.8980280067488207,0.5123509442242883,28,30,69,57,1
0.00591170551525676,0.003825496966212047,0.9182998689072095,0.4733021322597682,28,26,66,58,1
0.007319286653333141,0.00420456192303538,1.0330431069308428,0.515803068429056,32,28,63,57,1
0.006712056287889675,0.003968969410755947,0.9710907242274154,0.48008585588213737,32,22,61,57,1
0.008009524392748608,0.003927105594708709,1.096109591743139,0.46978341697231035,26,22,58,60,1
0.005187080290756508,0.00229448590255059,0.8851683471848724,0.1731499413534436,30,24,83,63,2
0.004885120681863161,0.0023469197714700357,0.8818048775981618,0.17214978204853404,42,20,82,53,2
0.004986556361683472,0.0020504209808003696,0.8973689046058558,0.16845935431392461,48,22,87,55,2
0.005356531094816374,0.003015655594776091,0.9170525737755275,0.20772776688846042,34,24,90,56,2
0.005576837201788727,0.002690810167709441,0.9321206043924964,0.19519355095469484,30,20,85,60,2
0.005446300394174783,0.0027958201792708075,1.020444942483753,0.20831956236767224,32,18,84,61,2
0.005746271448510294,0.002550920144626198,1.0342339961694171,0.20687007950618067,30,18,84,62,2
0.005214564516339665,0.0020827539180690744,0.9814538786587179,0.1957456767637303,32,22,80,61,2
0.00630985067092234,0.0022039834487195265,1.0100378343106893,0.20999815856521165,34,22,80,55,2
0.005450624351125532,0.0022318258580074257,0.8794404278156925,0.206732869600555,28,20,78,56,2
0.004699668196157861,0.0017839606563225905,0.7254439940886837,0.17034591469161864,22,16,72,66,2
0.004988499432294253,0.002020391176319039,0.6918099989129162,0.1687513737348951,22,14,74,65,2
0.00486191977477997,0.0015053466007438063,0.6072897650586784,0.12600509546434188,18,18,64,69,2
0.00525101903855251,0.0016754662277699405,0.7599065623273266,0.13825634836600123,26,14,68,71,2
0.0059947608113312175,0.002057882498695007,0.9104726624813153,0.160479210751189,32,18,75,72,2
0.005870661209255672,0.0014866461797329313,1.0043951480879556,0.1366129495903759,30,20,80,79,2
0.005998276595518518,0.0015235117558667437,1.0444038085939167,0.13147512598690655,32,20,84,81,2
0.005566949974630353,0.0015769457466245263,0.9440167602148996,0.13948584217192456,32,18,83,75,2
0.005109479954345559,0.0012431971094951735,0.907576362948208,0.11733436174999509,30,20,82,73,2
0.004699536314525712,0.0013062389477344913,0.824708106482602,0.11797950119232763,34,28,81,77,2
0.0046386978439037245,0.0010603207632983993,0.8478416840817636,0.12242840736225491,40,30,78,73,2
0.005344367170869576,0.0010455030569352704,0.9632838637610954,0.11820399507736377,42,26,71,76,2
0.005500802707589677,0.0008807146753349594,0.9871482262277711,0.12124279837288392,40,34,79,85,2
0.005572734725015659,0.000920589961089009,1.0585494454637558,0.1251650455391821,44,34,83,79,2
0.0056337765350018935,0.0009318568577936924,1.0506381671643468,0.12437601165631444,48,32,84,78,2
0.005459098295239864,0.0008279583947650753,1.0363812768517804,0.12188229855977485,50,44,90,75,2
0.005144799519474621,0.0007306636256241558,0.9687227750317464,0.11897767660676399,42,40,84,76,2
0.005167035490440984,0.0006427900032089634,0.9094182072816714,0.10984907800589479,40,42,77,80,2
0.004603242077691014,0.0005969886288007724,0.8759587832665302,0.09721196286592204,40,40,82,78,2
0.0050539654371416195,0.0006220731877437701,0.8739977551791897,0.09820418739683515,38,38,77,76,2
0.005657492178074569,0.0006663661881303327,0.9513541185412856,0.10210728247922653,38,36,76,81,2
0.0058588901484237935,0.000915747420605809,0.9609455436810943,0.11437839679475806,40,34,81,75,2
0.006437558804786977,0.0009691319348042694,1.0043435789253674,0.12250008814026636,34,34,78,79,2
0.006049803355768624,0.0009579118622775171,0.9281992073683096,0.12573506076175167,34,36,79,82,2
0.005248291557658947,0.0011600470016809214,0.9267904100087038,0.12776129886911342,40,22,82,73,2
0.005180972336939634,0.001087790119530907,0.9060605047057003,0.12319422623472485,36,20,80,69,2
0.004846068725350568,0.0011579834751371818,0.9140384418560359,0.12415778457201139,36,20,83,67,2
0.005192230536605074,0.001170123324380611,0.9802237722706209,0.1295309567883463,38,22,77,66,2
0.005140172726114987,0.0010956840483429147,0.8987383377459895,0.1333328473620228,28,26,77,72,2
0.004927033030818626,0.001227918286516366,0.8834293176288216,0.12980792354499648,40,26,77,69,2
0.004472563208625704,0.0012248730069871375,0.806072485692895,0.12146417115259449,36,22,81,75,2
0.004799709187000953,0.0011763664542659962,0.7932334495621266,0.1278315041437425,36,24,78,80,2
0.0046618698480845,0.0011751474197440456,0.7828900810894901,0.12658645268921812,34,26,74,74,2
0.004567361282804922,0.0010318206594942265,0.7524736917582134,0.1353499090585244,32,26,74,75,2
0.005648953275761221,0.0010290772193611909,0.9305541911468161,0.1411813040623166,40,30,68,81,2
0.005308291521627944,0.0011552395677325294,0.8673686735295056,0.13428290084467856,32,26,79,74,2
0.005360666761797591,0.0012337796669113848,0.9677419887569749,0.13773695738665218,36,30,82,73,2
0.005610638057435685,0.0014149954444891027,0.9976874596946617,0.14143764890769944,30,20,81,65,2
0.005222637705849712,0.0013967714261789881,0.9123656967253813,0.1478636012821853,30,22,79,65,2
0.0007889653597314022,0.009146531603381292,0.12065366797348374,1.200668581143843,30,24,67,63,3
0.0007241820496963732,0.00974534995757287,0.11535549299939087,1.258729313801587,34,22,76,62,3
0.0006351107163417534,0.008919720702610646,0.10300684748264208,1.2034588080578406,34,26,77,60,3
0.0006205960480228624,0.008453693909278427,0.09981292196502443,1.2134730316723943,38,28,76,60,3
0.0005848370222090248,0.008011320455403368,0.09231411621015365,1.1542748103064837,38,36,74,59,3
0.0006355344852906272,0.007670163248427815,0.10418421473605105,1.1314698306352229,40,34,77,63,3
0.0007164163753210813,0.008347839436037272,0.1160816628373077,1.191193301144202,32,28,72,64,3
0.0007295641622212485,0.008488852226788869,0.11585459498255112,1.1313833816926606,34,30,74,62,3
0.0006992937414134486,0.007843309330633746,0.11697719202554514,1.106393789045689,38,26,74,62,3
0.0030881736601295453,0.006698533707607196,0.21223127913643797,0.8767959821752292,4,22,68,59,3
0.0030560099151891286,0.005588395660832758,0.18946550099254075,0.6160258678112965,4,22,68,56,3
0.0032985389640427247,0.004902356577098018,0.18601382320636276,0.4676457967016006,4,18,72,61,3
0.0008109236705922193,0.002911196820599609,0.08496086341286688,0.30700428502902416,8,22,72,63,3
0.0008620590034742398,0.003658736435119626,0.09534347996739678,0.44550798190240315,14,26,72,58,3
0.001197661362702044,0.004557624499248903,0.12976874974066063,0.604583671985084,8,26,67,57,3
0.0012277746249913912,0.005467874093206346,0.11817557124330938,0.725762288329952,8,30,64,57,3
0.0008143933550424602,0.006362601192927876,0.10458335444133841,0.8563629492943816,22,32,70,58,3
0.0007980462926665173,0.007078293192624288,0.11096988046642246,0.9846826870971611,26,32,69,61,3
0.0006071429079445676,0.006829405456586245,0.09447745179932841,1.0011702156334046,40,32,68,65,3
0.0006360337660121949,0.008286208463551365,0.09638135600614116,1.163190749592811,38,28,71,56,3
0.0006701963638882537,0.008927785879344697,0.09877908075975779,1.2066380972287003,36,30,69,53,3
0.0007087918870413667,0.009403612995515639,0.108835327439136,1.1309233762805377,36,30,73,49,3
0.0006508105955453686,0.010296164321396762,0.10632897236425701,1.1987769859940869,32,26,78,47,3
0.0006789007450450527,0.009859928280046523,0.10814565030426602,1.2306155432435402,32,28,78,49,3
0.0005823469689034353,0.008894040761893617,0.10592644199935307,1.1510050123031066,40,34,82,56,3
0.000670240864525028,0.008954611727953494,0.10193602014668281,1.1971427662012444,40,30,79,57,3
0.0007547903332987649,0.008745009119430769,0.10313041739666408,1.1477722498483292,28,32,79,60,3
0.0007153600295572006,0.007383677773130145,0.101020665580563,0.9831240359696312,28,30,77,64,3
0.0007342212938216297,0.007569341599116923,0.0955488783062639,1.0038604570719891,24,26,76,59,3
0.0006558213288645147,0.007402649746827129,0.10157639619310058,1.0098392300339185,28,28,80,64,3
0.0005596830088280091,0.00672136560493603,0.09269483676933861,0.9412712867934541,30,26,79,65,3
0.0005935822820509025,0.007378709063371703,0.0904162200253788,0.9835432086401936,32,24,79,58,3
0.0006289023077128359,0.007062760382211826,0.0985514058066745,1.0043286974201502,42,30,72,67,3
0.0006192730511543796,0.00684383217550753,0.09674555826864462,1.0334931415511042,34,30,73,67,3
0.0007687954244541621,0.0073924218452715565,0.11698649198741014,1.0650759608917266,34,26,71,63,3
0.0008133344178001801,0.007750061150732298,0.1242605350113748,1.172892244036799,34,24,64,67,3
0.0008630204570466534,0.008726136549349625,0.13245337465642587,1.1750399724829081,40,26,65,60,3
0.0009059810658540115,0.009232575304447866,0.13465660436796834,1.2371760010588821,38,26,67,60,3
0.0009337174481450226,0.009624685372299834,0.12259129349374713,1.2947577021422365,32,32,70,60,3
0.000868682152082402,0.009708765700739596,0.12003042508742642,1.2514637824622248,32,26,69,60,3
0.0008132436559703696,0.00919265827472499,0.10920654351831516,1.2728791248692797,26,28,71,63,3
0.0007502142607867552,0.009086065242264782,0.11294406199471155,1.2108519718500523,32,34,67,61,3
0.0007436869378732511,0.008879661657297325,0.11111104241623848,1.177884009432534,26,28,60,58,3
0.0008171604659876465,0.008004272277336279,0.12821473188224908,1.1351691588785437,30,30,63,59,3
0.0007959701381714307,0.00736347549337533,0.12057923653871444,1.0667998935545153,28,30,66,62,3
0.0007476291664797911,0.0072251548701215175,0.1191215020648215,1.0351507880338897,30,28,70,62,3
0.0006936297642015312,0.007186599546303569,0.11584115546586625,0.9894625062065805,30,24,78,64,3
0.0007543511858677337,0.00848842692514834,0.11448544184367652,1.0783520311437507,34,26,75,54,3
0.000744822863741226,0.008742802587640338,0.11628168169507451,1.0288899126229232,32,24,77,55,3
0.00010169340882777044,0.00033425757237722474,0.012809376915686238,0.03252777225540804,26,28,69,65,4
0.0001099593928804655,0.00028536181562948694,0.014596246044044235,0.030714972164666603,26,32,66,62,4
0.000131905854736841,0.00027932870500681407,0.0162415615314908,0.030394461680188473,28,28,68,72,4
0.00011627935972277712,0.000236930453235729,0.014693861692718748,0.027153147250224847,26,28,71,72,4
0.00011313937209277796,0.00023479159705340876,0.015216820635680422,0.02759095489923944,26,30,71,72,4
0.00012968186685130486,0.00020699998983299817,0.016694280069714143,0.022957111005306535,22,28,71,75,4
0.00010641786924864582,0.00020302709832807614,0.014988814390997389,0.02050623308225671,22,20,81,67,4
0.00011569801941552964,0.0002201097312412529,0.016069161030214156,0.023896816292981363,20,28,76,69,4
0.000103076732701134,0.00023163304563388303,0.01488840938928962,0.02661522026391315,22,28,82,72,4
9.454179621569943e-05,0.0002519162033797052,0.01493850056123128,0.02776765925404359,24,26,81,71,4
0.00011157718873833925,0.0002562405166760437,0.017243012240597686,0.030100081084472412,26,28,80,63,4
0.00015063808525623166,0.00023567986840263987,0.01967621725215685,0.027887363004571734,20,24,80,63,4
0.00016212544625231656,0.00023475590954058107,0.020995802453472233,0.025187176877074342,22,22,79,63,4
0.00016783898905762583,0.0002198015002942145,0.020646862388643744,0.02735548877159545,22,24,66,63,4
0.0001608325212419156,0.0002078984816114547,0.019852761871918898,0.025422423342761482,20,22,64,71,4
0.00020169099996179387,0.00023040598149902394,0.022386353713409166,0.024314553329968534,24,22,66,65,4
0.00018103056868262545,0.0002525883302349507,0.023149065975197038,0.026758160971928978,26,18,63,57,4
0.00018750594029983442,0.00022687267182155103,0.023874936848154893,0.02343817898079902,18,20,70,67,4
0.0009664975044517247,0.0007765991670862466,0.06059818134818812,0.05093240349280858,8,6,74,63,4
0.0019393728524617093,0.0035560031703287132,0.10631505665394067,0.20991781793719946,5,5,73,86,4
0.001988030577726437,0.003759008033583208,0.10722401247018397,0.21330091287026945,6,6,66,84,4
0.001292186585464264,0.003498916122573266,0.07134077766729437,0.2039599963328739,4,4,78,59,4
0.0012088747587276302,0.003311752877692373,0.06816782647051728,0.197874402279542,4,4,74,48,4
9.088172962136563e-05,0.0004266961108521476,0.011458267482746573,0.05094038151794719,24,16,70,67,4
7.488528139634196e-05,0.00046423976066451496,0.008132560697977709,0.05614185545241802,22,24,76,59,4
7.703807490693327e-05,0.0003708364432184793,0.007346368017297179,0.044645642445216766,21,22,77,63,4
8.389563272692434e-05,0.00040529670904733536,0.008326416936716733,0.0480962653279534,26,28,70,56,4
9.184849455065537e-05,0.0003839717094781341,0.008437446268228684,0.04252027865353185,22,24,68,59,4
0.00014440894691404582,0.0003873783804006467,0.009049259241254222,0.04284637428630886,14,24,62,66,4
0.0001496470069338747,0.000412411584263376,0.010580571088900438,0.044082516077198014,18,28,70,64,4
0.00013552334860783284,0.00039314521076154436,0.009957789435396975,0.043287209113795515,18,22,81,66,4
0.0001599741061437919,0.00036641152039481304,0.013558337904989512,0.04238164205223158,18,24,64,64,4
0.00011871145570469874,0.0003583551354804821,0.01215809376462761,0.03783990448959238,12,24,65,62,4
0.00010769091139403287,0.000333032515737586,0.012893381569198848,0.03538184831212394,18,22,65,63,4
0.00010230074831660799,0.0003412944875585201,0.01237275429319218,0.03921407257932144,18,22,76,64,4
7.774001983447671e-05,0.0003506899222308517,0.009745586512075608,0.039384721671646326,25,14,83,66,4
8.402926910516912e-05,0.0003730358447348912,0.010285130495406325,0.044071419712228284,24,16,83,58,4
8.256288171258536e-05,0.00034844046026434594,0.008655454445432744,0.04140651615513799,24,16,83,59,4
7.78629139102799e-05,0.0003276047580685813,0.009353064166042552,0.03606716428780237,24,24,77,60,4
7.358009869083255e-05,0.00038950159087435975,0.008587167815029434,0.040218810894304624,32,20,70,56,4
7.308775786765314e-05,0.0003555490412195886,0.008474792338638902,0.03719569583991906,30,22,71,60,4
7.399706729342978e-05,0.000399619938383726,0.009097040550408617,0.0437138190005815,34,20,66,57,4
9.550124738913211e-05,0.00040927012307346347,0.009634184678249889,0.04202392842000234,27,16,65,61,4
9.599513602890741e-05,0.0004000678273482054,0.009797010406286204,0.04011069134577344,24,20,63,65,4
0.00010028896510857238,0.00043236410888156064,0.010413257193541454,0.04235239896378659,26,21,63,62,4
9.555919675096381e-05,0.0004061069082922244,0.009569585878468841,0.0391414958033282,24,22,71,68,4
7.53735898883837e-05,0.00036452474157441165,0.009117634538107731,0.040250627198916936,26,37,71,67,4
7.445739996471149e-05,0.00034684253459053133,0.009065167358610801,0.03939963615694351,30,24,78,73,4
7.272674670295315e-05,0.00033743562733936283,0.009008622589443176,0.038266558144774185,32,22,82,70,4
0.0006608151617829784,0.0009737412985523084,0.0768451702181512,0.09853438313784219,14,24,67,53,0
0.0010437353025255004,0.0014295923012663414,0.11532040561422997,0.135223620697064,12,20,65,61,0
0.001097078616306537,0.0020452640223141074,0.12234860939036062,0.17250039646571852,14,22,63,61,0
0.0011818458553167223,0.002379780648999118,0.13834757807952433,0.21326242354545444,14,24,65,56,0
0.0015429823345521068,0.002666483271154678,0.18719488406646934,0.26765061579979815,18,26,64,62,0
0.0016091627715730714,0.0031520646704091453,0.20419499230638624,0.3531424129701239,20,18,67,65,0
0.002181427776405872,0.004065593287437199,0.3151328251527948,0.4784537681013589,20,22,66,64,0
0.0029873651328130536,0.005121728696965085,0.39355532498867396,0.6143991320761346,22,24,67,69,0
0.003734912448612161,0.006648875463535189,0.4538243814001289,0.7466807599496439,18,26,65,64,0
0.004719207887528171,0.007613291139162097,0.576959502551705,0.8601804798224427,18,26,61,66,0
0.005631834254216389,0.00784920995100865,0.6816849916805778,0.8820411234084888,26,22,62,62,0
0.0060226124427862245,0.008912565156008719,0.7774644199520426,0.8757788645591847,24,22,59,57,0
0.006759518885707738,0.009319824640324699,0.8993464275837966,0.9816442701525565,24,22,60,56,0
0.0066075716166631715,0.00894897465899782,0.91150814175401,1.0390054677104847,30,26,60,51,0
0.006390705396024427,0.00947394718433351,0.8989260211757832,1.105527787865085,24,28,66,54,0
0.005909871910152519,0.009483259920657546,0.8624438593156103,1.1594893249515081,22,34,71,53,0
0.005465913564155784,0.008997759445642024,0.787106361789827,1.0265374771318825,24,26,71,60,0
0.005760384346671623,0.008541905598569455,0.8469942722292455,0.9996777288727798,24,30,73,60,0
0.005955276493377429,0.01008598426875294,0.8475834654993746,0.9914259035121283,20,22,70,51,0
0.006339688970074615,0.008771638427653489,0.9256380402478447,0.9961303703916317,24,26,72,52,0
0.00648630771655656,0.010231470786805077,0.9794607302542664,1.0580319403327947,24,22,71,51,0
0.007345755248945116,0.009494438725491421,1.043927385691418,1.0087144370252996,22,24,63,57,0
0.0072435666173729365,0.010757478547977005,1.0906669818486265,1.105112432081103,28,20,62,58,0
0.007238934510012048,0.008272365679036225,1.117926309021614,1.0226474551632732,28,22,67,66,0
0.002951811594120557,0.0023959442145617123,0.3673713710775479,0.2348920958949364,22,24,59,50,1
0.004059227632316858,0.002814758473454462,0.4839189461059191,0.2669306682180716,24,20,56,48,1
0.006030685422915606,0.003718478496930916,0.6174315847548312,0.3473390191019783,22,16,58,44,1
0.0075620790158404646,0.00529858452243423,0.7602165043926431,0.48918110729201153,22,18,60,41,1
0.007608879341587511,0.006171984141803418,0.8552537437103814,0.6125150628428024,24,24,57,51,1
0.008215156980782115,0.006970999420879622,0.9717634337535834,0.7197733393103726,22,24,59,46,1
0.007269346513328367,0.006715887198946666,0.9383568584243309,0.6976053056253534,24,24,64,50,1
0.008294188700648497,0.0062421579196498735,0.9606903856144213,0.6341683388853558,18,26,61,55,1
0.0075466377800984565,0.00519291187893779,0.8910122221310274,0.5442186428250954,24,24,65,57,1
0.008370903248553283,0.004458694392816488,0.8932268412793066,0.4851256081514358,22,26,58,61,1
0.008811095284186492,0.004494189619993536,1.0175019507135976,0.4903070841521178,24,22,58,59,1
0.00814421131247912,0.004380990826630786,1.0443542511364516,0.5062445536420928,24,24,55,61,1
0.008306683608435856,0.005579982862221885,1.1544024442520975,0.6020354636351333,26,22,63,61,1
0.007944074145293035,0.005801188776670498,1.1186826720533367,0.646995998026743,28,24,64,61,1
0.008023112294759533,0.005690335925174943,1.1595079319590156,0.6754429398309884,26,22,67,58,1
0.007829426554037445,0.004901930767763275,1.1482394039156325,0.6412578632123607,30,28,69,63,1
0.0077117392562566014,0.004486931629805234,1.2137441271021165,0.6089546978078697,36,30,72,62,1
0.008201142301915902,0.00450514602268739,1.2305165216819618,0.5708055802336346,36,30,69,65,1
0.006832274773491787,0.004589813523924705,1.087854836318176,0.5915707884702609,40,26,74,69,1
0.006816248256735899,0.004771351113436241,1.0494390168039744,0.6049378223819961,42,30,72,65,1
0.006793616800999956,0.004897736327676202,0.9804562161128273,0.5879043815169345,38,24,74,64,1
0.0067593897385864595,0.005099685335932224,0.9724970722588777,0.5951187954909959,34,22,76,65,1
0.0069281675433719315,0.005005524618378171,1.0351374784378933,0.586582717825884,34,22,72,64,1
0.006415913435933819,0.0051383201162742064,1.0364158727471995,0.5644225284495327,32,18,74,63,1
0.0078053031953737315,0.0026439798696358953,1.2893535060491526,0.19868206767154287,34,20,73,52,2
0.007363044799305012,0.0022701903032481857,1.189146150424789,0.18288323242377122,36,18,73,54,2
0.006595533787569786,0.002570676266818754,1.0506147422918775,0.17836728203487398,36,16,69,50,2
0.005722311475900945,0.00222494509087755,0.9113709873082803,0.16675460816821927,38,18,74,54,2
0.0052449370245754605,0.002626840158005196,0.8430322893967895,0.19169576469369223,32,20,78,57,2
0.006446655762602499,0.0026587958282370426,0.9370396861701056,0.195794047807399,26,18,79,63,2
0.006470451792747082,0.0025615492891031657,0.9886892004459091,0.1887885018098625,30,18,77,54,2
0.006540242710440767,0.003181782627549637,1.1064317335222533,0.21471157868677634,36,16,81,50,2
0.00607710526702372,0.0026422659863431664,1.0419389117151552,0.18257143256818972,36,12,79,59,2
0.006275328784044143,0.0030713620120095043,1.0091183891677586,0.18765017154977598,30,18,75,56,2
0.005340748936612112,0.0030864783741591656,1.0059895414440314,0.18105517104449398,42,10,84,55,2
0.005529982172015905,0.002095163256905182,0.9436933078032083,0.153011253329802,40,16,80,55,2
0.005902557797306288,0.002253433383880035,1.0301996310833987,0.1537894082881012,44,18,86,53,2
0.0059455662903011505,0.0019833690083443643,1.0588537639736393,0.15398437077513405,40,18,82,61,2
0.00581826369956277,0.0016955494754654584,1.0152108801784636,0.15497955680432215,32,22,80,65,2
0.00592505220460321,0.0017584981062492636,0.9700363674776535,0.14906075980000288,30,22,83,68,2
0.006073133625555197,0.0022143152407396102,0.977251638011004,0.18027362614188394,30,24,78,65,2
0.006659583855550611,0.0024832648514822742,1.0779509565360854,0.18734739172650677,30,18,77,64,2
0.007166508365497014,0.002551006907616181,1.2139069015197397,0.1962191021428033,34,16,78,63,2
0.007343095073194106,0.002621689489868802,1.215483646938632,0.2166281777597569,32,20,76,65,2
0.007059445223126138,0.0022899179069198012,1.2408172467454923,0.20704090204893247,38,20,77,61,2
0.00768344564484019,0.002527005897777239,1.114475000203114,0.20543080607306494,34,24,76,58,2
0.005910260279297566,0.002475853868609821,1.0039163584611104,0.1983493559671871,40,18,78,61,2
0.005736834299879672,0.0024224265041251163,1.0277290975405076,0.18310042067968615,42,18,77,61,2
0.0010278537905857306,0.010909496942929165,0.151658603616454,1.5857369128335819,30,30,76,56,3
0.0010735735447200377,0.011519620642232766,0.16276585710959934,1.6665028104642257,36,30,79,55,3
0.0009649672367317119,0.0104481826613802,0.154730557248404,1.5218597839633339,38,30,77,53,3
0.0009525283721770971,0.010202014109967563,0.1532610343770878,1.4834607918025375,36,36,72,61,3
0.0009530111779264947,0.008882837290090834,0.15594926671689335,1.315387598109657,40,30,70,64,3
0.0008482143662797439,0.00827187480831991,0.1542429609742853,1.2174542527858483,46,34,69,66,3
0.000851289009279638,0.008642395215549497,0.14791308267130124,1.135766714185691,46,32,67,66,3
0.0007961388336496872,0.008102547093228617,0.14423547079655055,1.0725943502059878,44,34,69,61,3
0.000801484654252908,0.00853394095325852,0.1432068740429062,1.1138088382304443,42,32,73,59,3
0.0007915633557913896,0.00814591859971196,0.1479588856815279,1.08450232986718,42,34,79,58,3
0.0008567835918655542,0.007850890727684657,0.15092295726800167,1.0686956629859474,44,36,80,60,3
0.0009322605860810024,0.008113717203868933,0.1667724605295695,1.1270602583952718,42,34,78,59,3
0.0009168110055179352,0.007689610165220052,0.16370411816424363,1.0528252385859305,44,26,78,61,3
0.0008683626521104355,0.007652675538745907,0.14988921676567646,1.0735697352732627,46,30,78,59,3
0.0008111389543507995,0.008270335698742982,0.1472802924806564,1.115861943638233,42,24,77,58,3
0.0007451394841561385,0.008477038758030271,0.13188370344524114,1.1552853239939742,36,26,73,56,3
0.0007363374140851246,0.008352771264982645,0.12708867977923968,1.1294703236186792,40,24,72,60,3
0.0007132752177777875,0.008282719260261804,0.13431679367029598,1.1470512683419565,42,28,73,59,3
0.0006836065794136355,0.007974259223928103,0.1287721035309278,1.097649088033713,44,38,70,59,3
0.0007255683060463082,0.0078373045822616,0.13599196271221284,0.9796584991613634,42,28,75,57,3
0.0007336463358319941,0.00792887464400657,0.1330322193944991,1.061840833449259,44,32,67,58,3
0.0007239010392338091,0.0069768202170175046,0.11946558269245125,0.9511719623658927,36,30,64,55,3
0.0007807032962380765,0.007930472985714747,0.12368226786948512,1.0549068655687295,32,26,68,60,3
0.0008087707600977919,0.008748294759742049,0.12187890696580882,1.0968093451551584,32,22,62,58,3
0.00024131109520504824,0.0006097407518187798,0.034187826471094696,0.07412090119476734,24,18,70,75,4
0.00019974016309518317,0.0006345374236286594,0.027133194767101552,0.07209059793970106,20,14,74,71,4
0.0002284705760623352,0.0005718969926385171,0.03017058835139424,0.0639704602403607,20,18,66,73,4
0.00019375211920722867,0.0005450367917256881,0.026875613399159216,0.05757271668803321,20,18,67,79,4
0.00021274936205151483,0.0005107990111274392,0.027531270477492733,0.05883883499289901,22,24,74,74,4
0.00024785852272653165,0.0006128523251709459,0.03569696847058069,0.06694370447089136,20,26,72,74,4
0.00019355747356644207,0.0005401070232082204,0.028675775168578877,0.06673703290933472,22,26,74,66,4
0.0002112550101010673,0.0005696526740692035,0.02890510963173713,0.0707400273058803,20,18,67,59,4
0.0001763220075970539,0.0005228988312440958,0.023567007449762322,0.06316689513247031,18,22,77,67,4
0.00020228057209184638,0.0004358045689994136,0.022395521863704627,0.05805187661882826,14,20,73,67,4
0.0008535220168321037,0.0007885263400297855,0.12856916401088722,0.09160119502454354,10,21,74,71,4
0.0015299437994682663,0.0015593913978366987,0.23352519327944585,0.17660908083999766,14,14,49,64,4
0.001671733591678998,0.0017075928531398571,0.23913453139849147,0.19425512272418258,16,18,46,55,4
0.0016229459134524291,0.0017387714988232454,0.23259238431990092,0.1958609876208596,16,16,52,51,4
0.0011233983201085847,0.0014490157565612552,0.11881213594079926,0.15948587995355207,10,14,39,48,4
0.00011335195115738791,0.00048238659523073776,0.011310214721460996,0.05067183177452839,14,20,73,53,4
7.627429907324787e-05,0.0004907767902818042,0.010334101282769494,0.05268176230590839,30,24,73,53,4
8.737568037352957e-05,0.00044019725067789335,0.011199449992735712,0.04530765016339224,28,24,70,56,4
8.191358229210712e-05,0.00042963382839244265,0.011016739806694448,0.044005712761717934,28,24,65,59,4
6.889211373046658e-05,0.0003766044553815708,0.008687126173962579,0.03994879984259877,28,18,66,62,4
9.652671853913869e-05,0.000291232114948964,0.011370690834665007,0.031955117583074434,25,18,63,67,4
9.360342254463848e-05,0.00031041037579790533,0.011503235390943079,0.03410776565116371,22,16,70,71,4
9.410563519098605e-05,0.00026187778714590595,0.011399740640987272,0.029715764288628935,24,28,70,70,4
0.00011595679231264349,0.0003085767348713485,0.014880828833376903,0.033391012331153776,30,28,66,62,4
