f1ch1,f1ch2,f2ch1,f2ch2,f3ch1,f3ch2,f4ch1,f4ch2,Category
0.00024069114858659942,0.0014574229863023134,0.015398635972844663,0.08421384387945285,19,16,39,27,0
0.0006792899881072708,0.0014503273067728918,0.06969788762283075,0.09923000954990611,12,18,44,31,0
0.000974957040692177,0.0018604328329931954,0.10426065902509814,0.11871065259594342,20,17,44,38,0
0.0017186507094320814,0.0018751878285420353,0.15893383272583717,0.14626881404850958,16,18,55,42,0
0.0028659744949730286,0.0026368811337007564,0.2622519133738939,0.19565517807576244,20,19,68,51,0
0.003579786524783435,0.0026294294093816882,0.31568065751637875,0.23584166221548328,14,22,55,52,0
0.00475456754478473,0.003178571258924895,0.4047126458740597,0.2923168525359227,12,20,55,52,0
0.0043830726439947456,0.003490756512062931,0.44045786622222677,0.3081962605324834,18,26,53,57,0
0.00473663086663525,0.0032107370681839853,0.5055765915690035,0.2999847114517353,26,22,52,64,0
0.004485983513911653,0.002828175223586194,0.4907550914198276,0.2824822014797362,26,18,58,65,0
0.004361688566001056,0.0028128517995526115,0.5099612797612915,0.24918024012412066,32,23,58,69,0
0.004263853167495217,0.0024030040332871337,0.5342953354601324,0.25133537619712243,28,28,66,70,0
0.003318326444983115,0.002786729090189924,0.4435259700034432,0.28046038424509495,34,22,73,64,0
0.00364661851452666,0.0030667656859118485,0.45259861348687486,0.3054987911924423,36,18,68,64,0
0.0033549223178369284,0.0026568316007567964,0.4429268644687123,0.3072140373531999,34,26,68,56,0
0.0036367229829188095,0.0027883263011009,0.4348832442357458,0.3216242749946145,34,22,73,61,0
0.0033484657422006054,0.0026664509864685886,0.4051247186050441,0.2930358571573009,32,24,68,58,0
0.0038714586975974025,0.002331700881675703,0.4483605115140187,0.27523196684482465,32,22,69,62,0
0.003586692074864003,0.002523780932136451,0.4230229257278098,0.28564005632917694,28,26,64,65,0
0.003537536897526366,0.0025382428261769615,0.4226802914765708,0.2816832729009103,28,26,65,67,0
0.0038203454621531597,0.002408282580458959,0.45972020414999337,0.2735412926684986,30,30,60,80,0
0.0034284909780552403,0.002364631106533131,0.41031926802443125,0.2648283882742783,36,30,57,77,0
0.00312669973797033,0.0022687049398155755,0.3737338354613461,0.2573243655928072,36,29,56,81,0
0.0031821926942662278,0.0021577896202233985,0.4036514550343081,0.25386552080034314,34,30,58,74,0
0.0033157203026947814,0.002261486774260522,0.41404871733462156,0.2562758831365062,28,30,61,71,0
0.0031214465532748105,0.0023730211601029156,0.3974287143147712,0.2966580542919409,22,28,62,68,0
0.0035059685776565974,0.0021385304427124314,0.4380261506334292,0.268460673738788,20,24,53,64,0
0.002821089629840105,0.002337535622128774,0.32878233223687503,0.2733078311575896,16,22,67,57,0
0.0025668819004592796,0.0020428016975802027,0.32498418158427994,0.2611429368697953,24,22,68,56,0
0.002513982813191248,0.001999999268115957,0.3223040650063939,0.24992475583157012,28,26,68,56,0
0.001959480341323663,0.002139318729024165,0.27278413152666214,0.2774725770805018,36,32,70,59,0
0.0021510566059235745,0.0021963566018719976,0.3031042909411662,0.27803466399245497,38,30,61,64,0
0.001944819000485974,0.0021788401988678896,0.26259032123728454,0.2662348306041949,40,26,64,64,0
0.0024174448178269606,0.0021827582351819207,0.2773784247962106,0.25410951082859634,32,24,67,54,0
0.0023083291937468944,0.002233810098904434,0.26340986514198445,0.22836329191333735,34,26,66,62,0
0.0024632665593358584,0.0019411845585491294,0.2710925044684034,0.2182235740930912,28,32,65,58,0
0.002296922870189959,0.0019587099993743093,0.26657361329867496,0.22553342868660928,24,36,60,66,0
0.00200631766323498,0.001802356595497362,0.26098829788271494,0.22570285502874604,30,32,61,76,0
0.001987033650509587,0.0020494319209846796,0.25439815504492025,0.24849460370648777,34,34,64,74,0
0.001476160631463253,0.002878489363011956,0.18950285343444986,0.26377854964759306,26,22,56,57,0
0.0011340982478069246,0.0028081847341786615,0.14029341953109392,0.2332977369023601,20,20,45,34,0
0.0006051250598359735,0.002265398102612349,0.06600625445931299,0.17412888877056126,12,14,37,23,0
0.00016481010658357987,0.0010058617692622646,0.013163459223971304,0.0675137565141667,20,18,44,24,0
0.0003394874634521479,0.0011158556898897205,0.028967169377523964,0.09171886637905208,12,22,49,30,0
0.0009942580068850924,0.0016037276401477754,0.10393552918833475,0.13135903083139028,16,22,56,37,0
0.001601725407957921,0.001774020680834256,0.15507453298718524,0.1775065527566226,12,28,65,48,0
0.002653914177894151,0.0023396854893689063,0.23449878717701286,0.22937593898559425,16,24,56,52,0
0.003266026454073653,0.0025008833196310215,0.30622691653188316,0.2593654167537451,18,24,53,54,0
0.00015651623403681645,0.0011782105182044627,0.010606107812957016,0.06996728364898998,18,18,52,24,1
0.00015391881515312226,0.0012168158986107277,0.011918197343025587,0.07249977217414585,24,18,53,26,1
0.00042214133124494636,0.0012855609930336155,0.03851071706932701,0.08514442846399647,11,16,45,36,1
0.000691660847100688,0.00144706140564052,0.06672637388614816,0.10265577004198846,16,14,46,46,1
0.0009559172424124123,0.0016254274672016728,0.09630508539911026,0.1501089337776403,24,14,57,58,1
0.0011777510711698607,0.001908594909980825,0.1372666360031156,0.2183964544574644,30,20,59,67,1
0.0011916776397274413,0.0020930501589394856,0.1575258284660096,0.2768074673774833,30,28,72,79,1
0.001299450438923866,0.0025416788238753927,0.18097592961012288,0.33907189729949766,36,30,76,81,1
0.0015429039000657754,0.0027601319176692386,0.20652817934889547,0.3711141126838371,28,28,75,85,1
0.0016843829739341038,0.002500607518989646,0.22604363872712613,0.34781798530021757,30,20,74,84,1
0.0017976757855822057,0.002658660074098968,0.25369052630156574,0.34684567580186404,26,24,67,78,1
0.0018329562029174452,0.0027897715208572292,0.25175102550725736,0.3278303615158877,32,34,65,78,1
0.001742458565902237,0.002516728681963311,0.23762192443136593,0.30308095094092335,30,32,65,71,1
0.0017028227956157533,0.002709323535030105,0.23216390166274525,0.3215358236747121,30,24,62,68,1
0.0016409293381962045,0.002495673955546361,0.2163304785869018,0.30020969687014215,38,30,61,70,1
0.0017323407383317564,0.002340671718877889,0.22879080396256374,0.29566899304138533,36,32,63,69,1
0.0017322136681532493,0.002167681737580928,0.22877731825569259,0.2860778066659231,36,32,64,76,1
0.001431413112989334,0.0022877757999974187,0.19989916671621488,0.2879692534981159,34,30,64,78,1
0.0013733067624025245,0.002309429049476211,0.1840505975410725,0.28599250387102254,30,28,64,72,1
0.001403836896647917,0.002235189940530818,0.17775527193134488,0.27277415542089983,30,20,64,79,1
0.0014654844527326363,0.0022202885425542202,0.17535575191129713,0.2866721378644119,30,20,58,80,1
0.0016541324634474915,0.0017798733820209192,0.19505651823274056,0.2601734343206693,30,30,61,74,1
0.0016437322739206457,0.0019266450793884074,0.19539066271276492,0.2741695544038012,34,24,62,74,1
0.0013324322492340285,0.0020046198021841195,0.1634266011135142,0.27135449961377744,32,26,65,70,1
0.001216539202566978,0.0021341051824873914,0.15351022089630878,0.2431994564178194,30,18,70,73,1
0.0009816442376146092,0.002347647352136393,0.1316592046072645,0.2727283704380903,32,28,74,70,1
0.0009051837118768704,0.0024225259373363305,0.12192038285286867,0.26311975867593934,32,24,73,73,1
0.0009944207971663672,0.0026616480703024,0.13672515228806847,0.26625750698321066,32,24,74,74,1
0.001057914202253275,0.002427236150561822,0.13808725031691002,0.2721996629251586,28,28,65,77,1
0.0012760202149918653,0.0021620369457014685,0.15214204285740102,0.23264465989651903,28,24,66,79,1
0.0012832258085839709,0.0019668122321781258,0.16784422281642292,0.23868740682069384,32,28,64,81,1
0.0014160133473749786,0.0019629526633609044,0.17068802932382818,0.2502185876799991,26,32,59,83,1
0.0013472711929528158,0.0021774800495260906,0.16112454816459715,0.24756983812598754,30,34,60,83,1
0.0014518052533637519,0.002102438779077914,0.15968553409840747,0.26155245119974496,28,34,62,88,1
0.0013511892185300908,0.0021527207550642207,0.1427945337676512,0.25297854099535017,30,32,64,84,1
0.001292916610074653,0.0020335496398519903,0.1406388607002273,0.23732193181553463,22,30,74,76,1
0.0012411378428337765,0.002082948553699483,0.14864640917807626,0.2511973262788854,32,28,72,69,1
0.0011051874724243146,0.00195501906277994,0.13838042941631093,0.24906754723283303,28,30,80,65,1
0.0012270544689514603,0.0019180579483450123,0.14057168855349966,0.25035847281023377,18,32,86,62,1
0.00103885204246876,0.002850765512754019,0.1234342833235343,0.2671900306809107,28,24,82,57,1
0.0009946857011542654,0.0030583036159003833,0.11501349010090542,0.23996389303449167,30,24,82,63,1
0.0008980087486983395,0.0027347780012441938,0.11738173204233456,0.20185877408549965,28,20,79,53,1
0.000813925144549677,0.001843024914921433,0.10937749597076592,0.17279053357209473,26,24,70,62,1
0.001025343103756116,0.002006428190101384,0.14961434125224624,0.20015155256616585,26,24,73,65,1
0.001112933478677777,0.0024642562538450007,0.18298468991408245,0.2684256401602464,36,24,74,67,1
0.001526778483953678,0.002717013129574014,0.22002147569670436,0.3224378808269727,28,24,70,70,1
0.0019063183602288237,0.0031360205752264756,0.2550389567964524,0.36437991979845247,28,20,69,72,1
0.0023635199543068,0.00298734106190998,0.2947966093000127,0.388539600671605,22,26,70,82,1
0.0040453253836577165,0.0014125220060905732,0.3679708156117656,0.09965836444189749,20,18,40,43,2
0.0065289328507489855,0.00163088700279843,0.5878135201913924,0.11081935765412172,22,18,48,50,2
0.008279241563307936,0.0014615058665025252,0.8256186608305854,0.11771525804155046,30,22,52,53,2
0.009528122593196396,0.0019465623547877961,1.0473448122270432,0.14865316071752258,26,20,58,54,2
0.010151266548041138,0.0023570272784156927,1.1247567417029767,0.15936153759480212,30,18,57,52,2
0.012121444465120668,0.0023881717237321165,1.3614951735192728,0.17039322505632662,28,18,54,64,2
0.011555791309312136,0.0025538038713691907,1.2943731071303342,0.19066180600382782,26,18,56,63,2
0.010890868746359894,0.0024010821487463487,1.249667574035711,0.18928608108340972,24,18,57,72,2
0.011597649054885391,0.0021565422162263394,1.379039594461526,0.1869350229336458,26,20,51,72,2
0.010096483284390938,0.0018515568331917251,1.2535901585426152,0.181653664483709,22,18,56,69,2
0.010602696633900892,0.0016379359298807428,1.356489731933214,0.1763227887717543,32,20,50,65,2
0.01014171694182744,0.0017106235881905539,1.37833464439149,0.16602300743410228,30,26,61,69,2
0.008156478602767525,0.00161248970851503,1.1990194553700328,0.16127889050412136,32,28,60,68,2
0.007149587904534353,0.0018495648900931992,1.043306437793443,0.16386261998020343,30,22,57,63,2
0.006563402622277583,0.0018272566533253573,0.9325722222418896,0.16127675922528403,24,26,62,58,2
0.005804252748466896,0.0019277035342529373,0.8092019102061168,0.15795750957151677,32,20,67,60,2
0.005757055690949956,0.0018343317484272544,0.821893545011584,0.16235912306111033,34,18,70,63,2
0.005783336609868527,0.0016204988660280934,0.8478310943743015,0.1546877361667512,32,26,68,64,2
0.006039863330906478,0.001727152085877115,0.7963382247172751,0.15646450449998545,34,22,67,61,2
0.006514805113892626,0.0016421286407205355,0.8268907383751883,0.16614764695380888,32,24,56,60,2
0.007173199879039926,0.0016977465103582513,0.8620262739814699,0.1581868379062115,28,18,55,71,2
0.006483449767047237,0.001680651595263657,0.8113872152120167,0.1570185166617756,30,20,60,66,2
0.006251117740068407,0.0015982251321324846,0.8521781577166079,0.14757381557898955,26,22,61,74,2
0.006449327686927556,0.0015977916922330548,0.8670704998171516,0.1459045940682482,26,20,65,76,2
0.006496517080154882,0.0017292501412282937,0.9362460962187509,0.1534918266885943,24,24,60,75,2
0.0064479058713208855,0.001540928394650792,0.9152684176827796,0.1506732279363237,28,26,60,76,2
0.0065486931392181045,0.0016082699140769555,0.8527046557306076,0.14537868945162372,26,26,57,68,2
0.0062172736580459855,0.0015253820789282902,0.8341532119381151,0.14902578184638476,30,22,55,71,2
0.00563929811565808,0.0015663180656949696,0.7511996949260973,0.1506537506718424,24,26,53,58,2
0.006057690209300046,0.0016893263403943975,0.8055125403541518,0.14581540060358347,30,26,51,62,2
0.00545635818261818,0.0016999696782458748,0.7793144809067049,0.15306425040809762,34,24,56,63,2
0.004985075010285786,0.00182646894206511,0.7283619210086083,0.1492997591156652,32,22,59,68,2
0.004263187940727015,0.0016984041793633455,0.6703057971817225,0.136272277209665,30,20,62,65,2
0.0046342797075108935,0.0016877256612999477,0.6398424687844128,0.13517295679318497,30,18,61,64,2
0.004263431599657713,0.00142774644535766,0.640918700973931,0.1295536303602857,28,20,63,66,2
0.004567831771581988,0.0014461437365533181,0.6895813483215923,0.12641385734516272,28,16,65,64,2
0.005531515142818223,0.0013337799337811926,0.7183766704891541,0.13232266004831714,20,18,66,68,2
0.005056362424918791,0.00157370281093888,0.7282975163566366,0.14059586819509567,28,16,66,60,2
0.005174732663938708,0.0016103169297911723,0.7450626264144236,0.1415931540957299,28,18,71,53,2
0.0046542648461932075,0.0023724686618529288,0.623838949337466,0.1740060540907579,26,18,64,39,2
0.005857849071696458,0.002402194443106607,0.67549127179756,0.17596465787931306,24,20,63,39,2
0.006827468022653704,0.0019312967741614499,0.7280797991733476,0.15225640801572493,22,22,64,42,2
0.00910625618593638,0.0016556427416377444,1.0008555841757072,0.1358713736848177,26,20,49,56,2
0.010367953362747682,0.002338858035917372,1.193439123929651,0.18227136057803214,24,22,52,49,2
0.011083281937670568,0.0034932735488782374,1.2346175160017585,0.24586137761142043,26,12,51,46,2
0.011338721806347516,0.00389581126071462,1.2671821985491933,0.28041698466721476,24,16,57,44,2
0.00944929390743422,0.003561159425809436,1.1789535823078423,0.27573283625287365,28,16,61,52,2
0.00986120026814154,0.003366380297547104,1.2033253030448654,0.2686981984094846,24,16,62,56,2
0.00018652311094119315,0.0010637291106856156,0.01601043973466274,0.08291831874499307,18,18,46,33,3
0.00025032623769780853,0.0013898013497436895,0.024674787585413784,0.129507366144004,20,18,47,43,3
0.0003790781676866363,0.0015569390813358261,0.04011125010794691,0.16299841932143888,14,20,59,51,3
0.0004599971066059121,0.0020342785784014266,0.04699276297533507,0.21649471061867992,20,18,60,62,3
0.0005284164028136935,0.0023549820108319562,0.0612584047213222,0.2978104595780107,26,26,64,69,3
0.0006717418174438759,0.0028741409574359056,0.07978982088041844,0.41505840353712303,30,32,68,76,3
0.0007279503895731751,0.0034161319655033194,0.09595635617571248,0.5619797024965181,34,42,78,80,3
0.0009009701363416173,0.004393065794016704,0.1319535934513023,0.7783728095337618,34,36,75,82,3
0.0009375080884514373,0.004661189724606364,0.15539770366334055,0.9205746086726356,36,46,80,88,3
0.0009310338878806682,0.004634185685732792,0.1637361290468229,0.9153471602802338,40,44,77,84,3
0.001053548654136022,0.004853057543125916,0.1736865502622572,0.9010069617593033,38,40,72,80,3
0.0010597476634332205,0.004568020218955977,0.17263971977346973,0.8476331684912286,36,38,70,80,3
0.0011678077111239489,0.0046336685800494,0.171158925542408,0.7935619201666403,32,36,66,72,3
0.001215389567800285,0.004962115088287037,0.17144290803624682,0.8299868309842833,30,30,63,70,3
0.0011955953169996076,0.004959847126073583,0.16181130153019269,0.8344976607232009,36,30,69,73,3
0.0012085567980071033,0.004911978639088217,0.16600863472163674,0.8000150488766524,28,28,72,71,3
0.0012799131899922712,0.0052023500051021,0.16267079285431926,0.8086221822475189,26,26,70,72,3
0.001211765351795989,0.00507157142963186,0.16594148301392417,0.7813827939044583,26,26,66,76,3
0.001184320465816925,0.00478494613255175,0.15773996856214748,0.7206411319223696,28,30,62,76,3
0.000994430833068335,0.003991459163851064,0.1335181475754462,0.6396997831824037,26,32,67,76,3
0.0008633501249793947,0.0034911349573680307,0.12307953973104742,0.6069086285546742,24,30,65,76,3
0.0010356392752175984,0.00406106838488573,0.13366346156936734,0.6525792173593439,22,26,57,64,3
0.0010089572857258388,0.0039389054175848984,0.13170156635526456,0.6104841651536084,26,28,56,60,3
0.0010984814574637822,0.004491998758155364,0.13377340058321022,0.6197738906698349,28,26,52,60,3
0.001117497423548058,0.004282345626079107,0.1400229672899546,0.6235504903983639,26,24,60,62,3
0.0008787844977534384,0.003531814175719839,0.11709014926744776,0.5220822605764607,30,28,63,71,3
0.000857506533965234,0.0036193814453871105,0.11605136327149322,0.5283749064830298,32,30,67,72,3
0.0006999847743559556,0.003133254469995454,0.1052162250514174,0.48676443993531476,36,38,72,74,3
0.0008932563612838246,0.004006481543501423,0.11714918819956473,0.5371829088791253,26,28,66,67,3
0.0008482248199869946,0.0038596158513863566,0.11922836117087399,0.5559976256762369,32,30,61,61,3
0.0009606767565252457,0.004171427379511393,0.12224914878798152,0.5850227726607751,28,30,58,56,3
0.000974863237397476,0.0039456583334692395,0.12388876687434891,0.5582069557585246,28,30,60,61,3
0.0008290082624404584,0.0033285833661508067,0.1061329012107815,0.49756429041707084,28,32,70,71,3
0.0007182919031046208,0.0030214085216743575,0.09783365949830249,0.4526134839095083,26,32,72,74,3
0.0006978474919141268,0.0029578201705209683,0.10201571339576364,0.44152529172403215,26,33,69,76,3
0.0007729842293893716,0.0031009598877139682,0.10893622437939077,0.45805239617523597,24,30,62,73,3
0.0007786978873370082,0.002998736232028093,0.10634639403474333,0.44981535675927153,22,26,62,74,3
0.000900515759366186,0.0035543443311535183,0.11838546146013151,0.5316711579009822,22,22,58,75,3
0.0008980195876967483,0.003429348914200281,0.10975025260952798,0.5005566042371693,24,28,63,73,3
0.0008367769655154459,0.003675578692382225,0.0968967603683209,0.4800093629874876,28,22,62,72,3
0.0009120689962678768,0.004500839332801605,0.0925697827895205,0.521407208377362,24,22,58,62,3
0.000895957596388279,0.004402005184209538,0.09070704633330608,0.5192795942551166,20,28,54,52,3
0.0009412857212776539,0.004783404039251519,0.11384621406973235,0.6295183872518234,28,28,55,53,3
0.001130986769761485,0.005460031613793674,0.14464704227017844,0.7767068101413854,30,28,52,54,3
0.0011964124132220926,0.005302500567982924,0.15962031308707236,0.7687874902142624,36,34,56,52,3
0.0011863054845048277,0.005227108818230143,0.1593108966259821,0.770023018063516,30,28,65,61,3
0.0011726813701650643,0.00511604617052879,0.1495320456001904,0.7548727940090628,26,30,66,64,3
0.001107802952180983,0.004910837300756656,0.15075314457840416,0.7332838441298846,26,36,69,66,3
0.00019446062645107535,0.001118124007793257,0.012660462769015743,0.07097429621953871,20,16,51,34,4
0.00020147912064683225,0.0011926403647002472,0.013055385179339109,0.07148596997308614,17,15,50,38,4
0.00019123432002574923,0.001111418034798688,0.013119136676957646,0.07318021285220026,14,18,48,33,4
0.00019101055901858216,0.0011439646937189002,0.012307819550650096,0.06906561637181599,15,17,52,34,4
0.00017606202652012686,0.0010720883647232689,0.011841415869740596,0.06694998692700688,16,16,49,30,4
0.00017499047302342854,0.001059944498807511,0.012619505142207086,0.06657128317317992,21,15,48,40,4
0.00017750204304174406,0.001071290517948209,0.012149336993844352,0.0646662793522181,18,12,42,33,4
0.0001695308974888512,0.0011177815524045815,0.012098255894273841,0.06752369296437748,19,19,46,26,4
0.00017236839865535824,0.0011156566470118647,0.012019880387032868,0.06767219973968434,18,14,54,30,4
0.00016965239583742461,0.001088992923072602,0.011092751088543785,0.06561107118887777,15,17,50,30,4
0.0001673034102955206,0.0011463588781336677,0.011042200348592634,0.06738393456058114,14,14,50,28,4
0.0001765664588952072,0.0012296298362683843,0.011118417163115218,0.06949270474591615,20,17,43,20,4
0.00018378001114197713,0.0012514320282993733,0.011134029910807365,0.07080100999743592,18,16,39,22,4
0.0001891961379013783,0.0012551494302156729,0.011065553426352372,0.07248033681457164,16,16,36,24,4
0.0001941944710030094,0.001256705195996431,0.011138560439687547,0.07356054944145815,16,14,32,30,4
0.00018843617228765603,0.0012584070523802876,0.011454212160558383,0.07291085619089742,18,14,31,26,4
0.0001860431063088273,0.0012241582333352978,0.010632374345124415,0.07093370669160846,20,18,42,30,4
0.0001891443567884776,0.0013064096128767853,0.01107436940104821,0.07401482686699895,16,14,42,23,4
0.00018639398477068414,0.0013140773403457838,0.010661844949170662,0.07203832534891313,18,16,49,23,4
0.00018536896878566678,0.0012387516155967246,0.010624535313679172,0.07053700226883472,16,16,44,24,4
0.00017992361530758203,0.0012094040592890711,0.010661287846495518,0.06943358752565071,18,18,37,24,4
0.0001751013714891771,0.0012241022693051493,0.010891132070249786,0.0698525889213715,20,18,33,24,4
0.00018595307652215514,0.0012933573486051037,0.010909989017961256,0.07037185066112446,16,14,39,22,4
0.00018618351280323648,0.001255908205016263,0.010889773959400302,0.06844249827325843,14,14,37,25,4
0.0001948050933049149,0.0013235314729752661,0.011127427878332971,0.06975532030401443,18,16,33,25,4
0.00019364955420043714,0.001336752391970437,0.011247950312726067,0.07250421431507152,16,16,34,25,4
0.00019199480457360237,0.00131771968188489,0.011150104704157102,0.0709014498566517,18,16,34,27,4
0.0003069010206032516,0.0020442175509844166,0.019027829378862292,0.11813114694088342,18,16,23,19,4
0.00037346575213347526,0.0035931129068320555,0.02668636166785319,0.21143855658275,14,11,34,37,4
0.00035786314906522765,0.0035784472571466354,0.026400487922741755,0.2032932049862231,14,10,40,37,4
0.0003198548818512735,0.003166083230158442,0.024437262241747054,0.18144352673293918,16,6,50,32,4
0.00025650962371890333,0.0029491912968126156,0.02355358869287115,0.16986287527894425,18,4,65,43,4
0.0001507472756959545,0.003607830994090464,0.017110956137429717,0.19511777177906517,24,4,76,27,4
0.00015292097975592702,0.003581027965525565,0.01619185512029435,0.19803276568860154,24,6,78,26,4
0.0001532186253819589,0.003657197270011504,0.016619843223613658,0.20306036933949057,24,6,68,28,4
0.00014915624266684824,0.0035803469049244165,0.014888667133187173,0.19340612792339365,20,4,65,34,4
0.0001646854581088595,0.0011119076084178349,0.014928174234521039,0.08088229195614459,26,16,58,38,4
0.00017838788147419297,0.0012637604308955977,0.01658480895464016,0.08472085950205516,22,18,56,34,4
0.00016896085025034177,0.0012259422412387302,0.01473326615991269,0.08316192124559119,19,20,61,42,4
0.0001645257347510002,0.0013560880831469057,0.01580232413823946,0.09586735313398263,20,14,58,44,4
0.0001666333588261514,0.0013580722535408202,0.015041656121701961,0.12472769075714836,25,20,64,54,4
0.00016123466425954787,0.004237942001483543,0.01379034082183281,0.292857294612398,22,10,58,42,4
0.00015699787184982977,0.004905625946630162,0.01421367408654134,0.32989130084152113,19,10,60,46,4
0.00015948998941631273,0.004951533186069579,0.014287292603344054,0.3213959559380921,24,10,54,44,4
0.00015058067648310124,0.004798711741045945,0.014000987158620562,0.2862988864143318,29,12,60,40,4
0.00017099527425578305,0.0015888836710098344,0.0145404132048391,0.12229194731125048,26,14,61,42,4
0.00017112830945267794,0.0013460362264291017,0.014920621239960753,0.08111279168934431,29,15,62,36,4
0.00016256747762864496,0.0012253103840346067,0.01449654926967413,0.0814444293458863,22,16,64,33,4
0.0017692447453667485,0.0022367182239878556,0.1973431238964549,0.22315642035000463,28,28,61,62,0
0.0017999006863296271,0.0023847930288416032,0.20876456142403466,0.21376706241233212,28,22,58,58,0
0.0016240147608625338,0.002254138953479715,0.2067082568842027,0.2256798253574717,26,26,63,55,0
0.0013635549633727905,0.002020447567876444,0.18099035928904017,0.22881675815991057,30,24,65,57,0
0.0013663434931878474,0.001979371096573411,0.1869601236761055,0.22615665077398386,32,30,68,58,0
0.0011916547447036272,0.001894968328716442,0.16092922891991737,0.21573365925544585,32,26,70,65,0
0.0013865608056407078,0.001896098529180555,0.16463634763016588,0.21192419328293094,29,26,75,62,0
0.0013663791496658808,0.0019527655741068445,0.15152625436680464,0.21409922204453585,24,30,75,63,0
0.0013205056845846067,0.001961515410879974,0.15755965284220855,0.20332539783733936,26,27,73,65,0
0.0012079056427270272,0.0023810119425266727,0.13488821953513278,0.22552174433591493,20,28,62,49,0
0.000916392110376009,0.002531629499645035,0.1097920060215956,0.20822338558878575,18,24,62,39,0
0.0008473385202319136,0.0022071866221578685,0.10442359157699173,0.17862917846274934,26,22,57,39,0
0.0009244279090345465,0.0015593029111351333,0.09410513536763551,0.1351156068060088,26,22,55,49,0
0.0014530354764652632,0.00238356328356137,0.16188138101494548,0.19780532923763844,20,18,60,54,0
0.0017860317636241069,0.00256847427458145,0.19869973405737543,0.23549402922141155,28,20,64,56,0
0.0021173279483929965,0.002729034138404732,0.24053487912761576,0.26287226024166416,36,24,59,54,0
0.00228791678972154,0.002790403827216796,0.2664734666362,0.283201247514713,32,20,60,52,0
0.0021126464771198516,0.002483618631866731,0.25508467776009874,0.2714686410745955,32,30,65,53,0
0.0024364195995041794,0.0027233384025276575,0.2584923367661254,0.2918096942504775,22,20,58,53,0
0.002269741984683463,0.0025118506670731462,0.24044278807093852,0.2763435603211486,28,19,67,57,0
0.001987921584780188,0.002205207499348522,0.23782052182830732,0.2586603735551333,28,18,70,58,0
0.0019260803270874454,0.0021704868250103813,0.23253941389562177,0.24427492786715088,26,19,73,63,0
0.001959528917084321,0.0021198015779999445,0.2554897505613449,0.23448132730413485,28,16,72,66,0
0.0021506742431931535,0.002163155068138048,0.2440906134610389,0.23672704137316075,26,25,72,63,0
0.0019819037579315137,0.002558266212466704,0.22077157032330466,0.2643749138641561,24,22,70,63,0
0.0019508802779493234,0.002627874882038933,0.20613951946780773,0.27106198977792517,26,30,63,60,0
0.0017809112676491288,0.0021790988688166445,0.18786233850490763,0.22957274738168312,22,20,74,62,0
0.0017012619933816334,0.0018197517913423355,0.18243173589756745,0.21962563695020693,26,36,74,70,0
0.0015990241531592259,0.001807679983805826,0.18251294226858947,0.20142254292807113,20,24,70,69,0
0.00155978108776031,0.001675764361898304,0.18276771454027785,0.1811484588675904,18,23,72,69,0
0.0016433389511625015,0.0018558696710848852,0.1727541415322543,0.20191510894041775,20,30,71,67,0
0.0018564340855867678,0.0019342835502043222,0.1873727462803219,0.20264788220053798,18,23,70,61,0
0.0014390977439550346,0.0018919950963400137,0.15668840967004202,0.2027405639322082,18,22,70,66,0
0.0015490381225295945,0.0019995855637928244,0.17197050196721098,0.20669930727410027,16,19,67,66,0
0.00152795917552198,0.0020809437562289267,0.15944229524143597,0.1932617631154233,20,16,65,72,0
0.0012920106966889426,0.0018954378281072991,0.14410803307973705,0.1825201568086465,32,17,67,69,0
0.0014608668518185535,0.0018404490373078244,0.15303421593824706,0.19677758350936106,24,22,67,68,0
0.0011787254002216766,0.0019696899780789387,0.14979829969867683,0.21359438259008529,26,25,78,68,0
0.0012681393489046714,0.0022743275271863927,0.1607164602599739,0.22905421306909815,30,22,70,67,0
0.0014632654748984195,0.0023265629876342664,0.16451720991192537,0.22459820249829904,26,25,69,65,0
0.0015897485661592891,0.0022135150279113166,0.17243085205374886,0.20829553075799717,26,20,59,68,0
0.001618415963393156,0.0023303731323757945,0.1621368721020046,0.2112519682122581,22,19,59,65,0
0.0015555968607118909,0.002038777427444594,0.15459413556456567,0.18976123752797575,18,20,59,67,0
0.00142707332707036,0.0020128368093864997,0.1447166136336119,0.19217979976607033,16,25,68,63,0
0.0012839267751551013,0.0016316475939000905,0.12451603405027849,0.19558636328832102,14,26,71,66,0
0.0012820626407963349,0.001615675420966273,0.13951456782277818,0.18673467013974504,22,29,65,58,0
0.0012334489750397987,0.0018017746528449854,0.14278175263889703,0.18341874022427418,26,22,68,63,0
0.0013841716016549563,0.001869417362987534,0.165757809908317,0.19316138957843407,30,25,63,61,0
0.001442453850438677,0.0021197770065850795,0.16376585349038655,0.1970358128103981,28,20,66,63,0
0.0019010320438560414,0.0024088573896288825,0.21188273514659567,0.28346144822984876,22,28,68,80,1
0.001932033511706524,0.0028173662937746946,0.21391246765594504,0.3241747979716583,34,20,61,71,1
0.001725749494048863,0.0029570334183942073,0.22767951529850877,0.3404033761723648,36,22,63,63,1
0.0015768572851084337,0.002543231109187855,0.21859006036431702,0.30800517313861014,34,26,66,68,1
0.001712145014046745,0.0027994916004665444,0.2249143028055937,0.33614224928163494,36,26,65,67,1
0.0017779611275254086,0.003029331383532037,0.21191819442716656,0.31733556753936015,24,25,68,80,1
0.0018063133616065751,0.002952545780419625,0.2057062847171609,0.3110231271852626,26,18,61,76,1
0.001814313712284219,0.0031669145281352303,0.21058160413548943,0.3438443298847028,32,25,59,67,1
0.001617609123030556,0.0025998188088967172,0.19074976965154067,0.31936773240710176,34,26,60,69,1
0.0016025592288197222,0.0034790858202247144,0.18230021505871263,0.3191009721106437,32,20,62,51,1
0.0014317016508094997,0.003134370570779605,0.17192513373640048,0.276459405992361,36,18,62,56,1
0.0012562676565429302,0.0025080995813614674,0.14417129074404772,0.23845476372753135,32,22,70,57,1
0.0011752404006321428,0.0017317240344820232,0.13258532228184258,0.185625938392307,26,27,70,62,1
0.001392679293295589,0.00174997859828786,0.16120513095143943,0.2237895050628559,26,36,65,71,1
0.0015513400298449147,0.0019227505453399867,0.17959075102321378,0.2600390212637754,24,34,69,76,1
0.001694491406984048,0.0023824167396141833,0.20147885230035917,0.2979093600002727,26,22,62,72,1
0.0020195134526738933,0.0025962807311094975,0.23837484804159362,0.33251722403075795,30,26,61,73,1
0.0020558602523748286,0.002895193233476413,0.2396128142869453,0.3308897453270243,24,28,62,66,1
0.002220385369952393,0.0032081118869115265,0.2597477248179475,0.349793700455958,22,28,57,70,1
0.002355818048017703,0.0027538714943239773,0.26956656907300214,0.3340849294701305,22,24,57,73,1
0.002386867085720913,0.0029761326785645898,0.2754932290550509,0.3445756606589885,24,21,53,71,1
0.002334197490876431,0.0026186810903372575,0.26577565819820015,0.3506797322711443,20,30,55,79,1
0.002168688393989853,0.0025960176562882576,0.27303754210069975,0.32998652474597445,24,30,52,82,1
0.002212360476918847,0.0027694766643230327,0.262602862490752,0.3309819714804838,30,28,56,75,1
0.0019759295383661945,0.002814099719762022,0.24344332095652207,0.33379054447591966,28,28,61,69,1
0.0020852217975604816,0.0024147018978059108,0.25283875371973,0.3172524835492745,26,30,65,72,1
0.001961803572313403,0.0025629233385248396,0.23367542369998884,0.3150878820212714,26,26,69,70,1
0.0019115866781507468,0.0023972949036126508,0.2369114428899875,0.3001528866100616,32,26,70,77,1
0.0019786349437174817,0.0026620856158371792,0.24586230970323578,0.28798798372512385,26,28,68,74,1
0.001735579897878357,0.002618752488546846,0.22765149098211043,0.28871639621550027,36,24,65,73,1
0.0018600756590796694,0.002679740558400694,0.2352394204740287,0.2931038302898991,44,26,63,71,1
0.0017766397557418489,0.0029583735913655497,0.22518179042653352,0.3211065229924018,34,28,61,68,1
0.0017855477542568436,0.0031217217748551965,0.21649768833926286,0.3393644352058234,32,25,60,67,1
0.0021012862443554933,0.0027810877547432672,0.23382338210197856,0.3248355729534583,36,26,57,71,1
0.002186097347846543,0.00310952419166358,0.22247988211254244,0.37360465971653184,24,22,60,63,1
0.002386578242040709,0.00298357763868778,0.2437065927565604,0.3677755284444739,24,22,58,63,1
0.002192903574038242,0.0030934317284978907,0.2476147534538678,0.3794682479991051,32,30,65,69,1
0.0018849858060709527,0.0031070369284285737,0.22598411442895,0.381711101290684,28,36,67,69,1
0.001766000184021062,0.003016457487579149,0.2231210469566365,0.34202090177273453,26,32,72,74,1
0.0015279103933680262,0.0032336535055535022,0.21287290037857118,0.32465871118311224,32,22,72,77,1
0.0015696764226964493,0.0031184020820152047,0.2234842607781148,0.3230943944601878,34,24,70,72,1
0.0017104233903980153,0.0031079015241789543,0.2422198325969332,0.3182616338313365,34,16,66,74,1
0.001985221885341579,0.003056115465315433,0.2475451355074339,0.3256691998476125,32,20,58,74,1
0.0019087990884606425,0.0028053795878946342,0.2398085900809019,0.3190494628324202,28,18,62,75,1
0.0021921543413096867,0.0023012154188789408,0.23960944230315812,0.28529125399901506,24,28,64,78,1
0.0022454055840135435,0.002587175493617922,0.23817353015451267,0.3149797203179477,20,26,59,71,1
0.0022566030701864424,0.002527792552635734,0.23923369314433213,0.30743546701567226,22,28,61,69,1
0.0022186685232650025,0.0024355615276600517,0.2516652825825023,0.2911422141654197,26,24,56,76,1
0.0020838974810949307,0.0022341008795588747,0.2342083527393177,0.27122658826728674,20,30,54,75,1
0.004891536886214376,0.0012870753670824917,0.6680685296691026,0.12604402993085212,26,25,58,62,2
0.004837728702199166,0.0012695828517802316,0.6402359288532747,0.12488898517049957,28,20,58,63,2
0.005131905298148951,0.0015225902873593556,0.6661765404576699,0.12536088547926186,22,15,56,59,2
0.005597468952643522,0.0013511294148597296,0.7075613213999937,0.13081944017583938,24,26,57,56,2
0.0051547515163940325,0.0015209495723810277,0.6676916999434221,0.13598739274419064,22,29,54,54,2
0.0051291628388511765,0.0015780318161579987,0.6721522469962286,0.1455692331351728,24,24,55,59,2
0.004304023028796743,0.0015971281552836962,0.5810989084044769,0.13328133147215726,24,25,61,54,2
0.004132880678457403,0.001525968323467341,0.5722621375083525,0.12964318362786245,26,20,59,58,2
0.003990629593087358,0.0015080924175842872,0.5684899751381246,0.12668719745831034,24,23,58,54,2
0.0030412719358889908,0.002274822065738298,0.4207648643912119,0.17051103166504974,26,20,55,34,2
0.002157165742408006,0.0025357056126265078,0.2847440340703153,0.17222129795515403,20,22,44,29,2
0.0012550713261126009,0.0022422551383262167,0.15085247436607302,0.15288157703534544,10,18,48,23,2
0.002182509184726362,0.0012334875745005148,0.15714432632437322,0.08636708081352233,6,18,27,26,2
0.0043335309339679745,0.0012842613085993124,0.3843083112463255,0.0947375668135143,18,18,31,30,2
0.007336746762688543,0.0014826275729364433,0.666288178254046,0.10950093722459173,16,18,41,44,2
0.010413829595400466,0.0017860882419030476,1.0180913305165207,0.14124067480542843,22,22,38,45,2
0.011603812596693821,0.001859605659795887,1.2996554556405575,0.15742694593571044,26,24,45,54,2
0.011205871144178741,0.0019483456542312614,1.3315708054271587,0.1853212164635361,28,28,50,62,2
0.009799041350585062,0.001887172322407509,1.2512198194930761,0.193291805717728,28,24,57,66,2
0.009089291775825016,0.0016439686463533899,1.1075759370793374,0.18340364262412676,26,26,60,68,2
0.007880202885081377,0.0014612243133621803,0.9588530259058125,0.17804329502200594,26,24,52,70,2
0.00709938387045141,0.0012934430190907522,0.8824042574306931,0.14556585504104322,26,29,55,72,2
0.006964961948254097,0.0012015915831279388,0.9070950824824814,0.13027452886696567,24,26,65,70,2
0.006222517571058906,0.0011356346446524195,0.8234359533669239,0.12209212667486612,24,27,64,73,2
0.006188957084126447,0.0013017159826137807,0.7383181579030463,0.11442719207054908,20,24,68,72,2
0.00558294872184659,0.0011514363550792035,0.7183288714461453,0.11778946325808873,28,23,65,72,2
0.004761375324072783,0.0014100591585789568,0.605810595469847,0.12035046351076499,26,20,69,68,2
0.004800565071388941,0.0013535756149984448,0.6515462574617613,0.12124773971443271,32,23,67,60,2
0.005511169148583516,0.0014788016623945013,0.6282753215083687,0.11989941454816204,28,20,65,68,2
0.0049008536547916455,0.0015833922530343763,0.6579414662828431,0.1265299876390577,30,25,72,70,2
0.004740932409614698,0.001417203473523633,0.6564040948996273,0.13001472539910963,30,22,74,64,2
0.005421323687551458,0.0014580764251736836,0.6315508615379313,0.13478916781188371,18,29,66,66,2
0.006484324179897035,0.0014381705171931764,0.7696258372786248,0.1381340812639016,22,22,61,66,2
0.005424561279230642,0.001501099272105359,0.6672444112861783,0.12841535860927544,18,23,66,64,2
0.005406098334037767,0.0013639257651994147,0.6672019466034586,0.11873175162299797,20,20,55,55,2
0.0045235000705585475,0.0012524336985080375,0.607226796867603,0.10859272257889335,26,21,57,62,2
0.003716983197720656,0.0013622319376509987,0.46327462469422287,0.11335837206537938,24,16,58,59,2
0.0035187376173636486,0.0013550397645974302,0.47135669994081264,0.11022720822586035,24,23,58,56,2
0.0034138552698427227,0.0012984581172796317,0.4374220911909553,0.10494675389918266,28,18,57,62,2
0.003147074913804879,0.0014215843019902744,0.43331483414424166,0.10638873444285134,28,23,60,59,2
0.0029769592437184854,0.0013155154317271692,0.4085437876557678,0.09796272096891304,26,18,56,62,2
0.0028611613651646113,0.0012248564763935252,0.39005485872732115,0.10320167511798445,30,31,65,58,2
0.0028608083149627064,0.0012142754380557027,0.4252099964054605,0.10485103079750974,32,22,68,58,2
0.003344964906088504,0.0013326362297224473,0.4424363478592198,0.1166255389312626,36,25,65,62,2
0.0035019805392553227,0.0013098607856040394,0.47884259056717415,0.1110078604256256,28,22,59,66,2
0.004109431947851515,0.0012199417504537447,0.5414838038919609,0.11354879253256178,30,23,66,63,2
0.003831539051705279,0.001389956245926727,0.4708124656232258,0.11966993272358784,28,20,64,63,2
0.004206897477617797,0.0015025259510033475,0.5077702423952111,0.1282180018525352,28,15,73,59,2
0.003996527167473943,0.0015728744668721023,0.5334540888988614,0.13093020252123833,28,18,68,57,2
0.0011365871632928735,0.004143259915172326,0.12999790149168958,0.5668147653958867,26,24,58,67,3
0.001233879351840549,0.0043466394180586175,0.13912673446655124,0.5925326223906543,24,26,57,61,3
0.0011646136675576857,0.004507153249941075,0.13966071992886142,0.6068886547803947,20,22,59,63,3
0.0009979321232313184,0.003699787771495258,0.12650309038467641,0.572398999266661,26,26,60,64,3
0.0010734578318124385,0.003815439458121463,0.12979101443152954,0.5564299581567673,26,32,59,73,3
0.0009756365428177172,0.003528946704345103,0.12067589931214082,0.5497984257556454,26,36,65,71,3
0.0008971431605077,0.003480898475891199,0.11537768559149965,0.5606308208109356,34,34,75,66,3
0.0010265215172295613,0.0039408189565846765,0.1261242982794297,0.581955039606602,32,38,75,63,3
0.0010184841398824314,0.00375876813409301,0.12590520362337712,0.572254931208631,26,32,64,64,3
0.0009972981543870823,0.004225804508440369,0.10829542112587233,0.5154616261693186,20,28,50,52,3
0.0007989131142709777,0.0035993663096187184,0.0808550537526122,0.36231856221503433,16,18,44,42,3
0.0005987895147634255,0.0029317542758269042,0.0577499255940905,0.24394465994928938,18,10,43,41,3
0.00026288696398533653,0.0013611091082235713,0.025532167004574585,0.11688483305101204,26,22,60,44,3
0.0004740947951719445,0.0020914735391471912,0.04104057892444025,0.19143915775100828,16,14,57,54,3
0.000674046474930623,0.0029655420734343296,0.0735964344477941,0.345362907845986,18,18,57,63,3
0.0008425981276099768,0.0036306762113990122,0.10363133763097007,0.4908820847753632,22,26,57,63,3
0.001025221371457797,0.004380981799433065,0.13308784241179192,0.6274088128714571,30,28,57,69,3
0.001428411077959863,0.005551099924077973,0.17653148267143629,0.8083895387582174,28,32,53,69,3
0.0014612379593621557,0.005711878159347344,0.1881626330968024,0.8223124406018668,26,32,54,71,3
0.0014718985658753727,0.005650658137457599,0.19087484441094588,0.8478675122789515,30,28,58,66,3
0.0015285248178028622,0.005811768517529716,0.2009462495360571,0.8912817419401047,32,28,56,62,3
0.0012895605836661542,0.0049405790271389955,0.18168529029904204,0.8085794159895296,40,34,60,72,3
0.001414914543243726,0.005496823832778501,0.1796157432426416,0.833386330674147,32,32,56,68,3
0.0013846779839280516,0.005322687044562593,0.18641097054126507,0.8701268460877041,30,34,54,70,3
0.001317187956443995,0.005027220725448791,0.1703042340869531,0.7970350185570885,30,34,58,67,3
0.0013724075930744788,0.0057017827454188845,0.17405431542487274,0.8571569301292429,32,34,61,58,3
0.0013307110082873802,0.005610212343371158,0.16269359406743558,0.8076828642840563,30,30,56,55,3
0.0012438634031032725,0.005243530891911898,0.14651953939240467,0.7717713757007618,26,26,63,59,3
0.0012954821951618968,0.005734674265564461,0.15473873351995415,0.8223023708537509,24,24,60,61,3
0.0012338444737741339,0.005407871857579356,0.14350229218529634,0.7325809411177233,30,26,59,63,3
0.0011145202458042204,0.004635308274500307,0.1391374551756053,0.6871661611158495,30,28,63,67,3
0.0012103896080568866,0.004934232286812019,0.1507202193350583,0.6989923245269875,30,28,58,60,3
0.001062742238902105,0.004353323332525361,0.13711058876995125,0.6384037616093803,30,30,55,69,3
0.0010630383902307113,0.004436230130885729,0.135163399238258,0.6210879901843586,30,26,58,70,3
0.000872932232552855,0.003919972768885735,0.12644391771081695,0.5875617174602733,30,30,60,72,3
0.0007771023305551977,0.003556914727644427,0.11686706625837041,0.5605650643329702,34,34,71,72,3
0.0006795662328862325,0.003121633190665633,0.10809646297883017,0.506111564503618,32,36,80,76,3
0.0008623015890885342,0.003799378431187579,0.11807754277276532,0.5353956432812966,30,34,69,72,3
0.0008583204467706506,0.003543525530314916,0.11738576304008669,0.5250790746987208,28,28,70,66,3
0.0008875592987151349,0.003759959267305114,0.11650055387634049,0.5322535004268777,28,24,67,62,3
0.0009303233355391434,0.003989570509770421,0.12338851203029891,0.5770164634606916,32,26,68,66,3
0.0008488684578282473,0.0035653103324383047,0.11097791297863342,0.5111934872051285,26,30,75,65,3
0.0008090399657246544,0.0031794446831601452,0.11178142480241363,0.5142324798808539,24,32,78,73,3
0.0007873699225660673,0.0030704009444475805,0.1133560063257995,0.5178084029193495,26,30,78,70,3
0.0008971461588488096,0.003351475474884127,0.11755001088612077,0.4949509840599738,20,26,74,70,3
0.0009094855170696719,0.003421331800275319,0.11614670412044528,0.4902924085779045,22,22,67,67,3
0.0008898591865014758,0.0032322854871253527,0.11148083487023579,0.4566370657987921,28,27,59,73,3
0.0008713992112740736,0.0034805427325676976,0.10859710173381716,0.4962462732951556,32,32,63,79,3
0.000867823481452404,0.0034193544062190344,0.1066751814744664,0.4845288972807575,28,36,66,75,3
0.0001762444513970939,0.0014513617263524,0.011379845716105052,0.08199601664172439,18,16,47,20,4
0.00018183126561719908,0.0014399558100086961,0.011458638102449752,0.08407388257184951,18,16,49,23,4
0.00018289155491009348,0.0014792413584498762,0.01127604851176496,0.08537149554171643,18,14,47,22,4
0.000186121276809198,0.0015185290577260167,0.01094788512046666,0.0830502370039522,16,16,37,20,4
0.00018305009215409168,0.0015210440739867339,0.011020770111172466,0.08378362545398021,16,16,35,22,4
0.00017834646320949373,0.0015194403629905126,0.010759915494508403,0.08423887833328304,18,16,34,22,4
0.00017556356976145563,0.0015108591811615513,0.010631971965933384,0.08513542278513915,16,16,35,20,4
0.00017829109185913466,0.0015349183036745314,0.010839808656664016,0.08460478936609024,18,16,30,22,4
0.00017596137120406364,0.001508053628040177,0.010876358617079522,0.08565305472364515,20,18,39,22,4
0.00018515464786958885,0.0015510761918576072,0.010679708699316746,0.08526006167117028,16,16,33,19,4
0.00016726409602944625,0.0014653737868331473,0.010588432983681586,0.08158005949638063,16,16,30,20,4
0.00018637805415667866,0.001504474791236692,0.0110871883911201,0.08130328772887233,16,16,28,21,4
0.00017717014504592724,0.0014687746897780898,0.010951547691883308,0.08073451822986134,16,14,38,24,4
0.00017343389596933634,0.0014477391589767798,0.011571671175802337,0.08148433518004039,16,16,44,23,4
0.00018598470445056525,0.0014832324195806787,0.013235200062211357,0.08470344940806641,18,16,42,22,4
0.00018904123678542862,0.0014417787652032232,0.012524743847948992,0.08181304961850541,16,16,40,26,4
0.0001924944804727536,0.0014677345513634818,0.013121246487502628,0.0806021943147384,14,14,37,24,4
0.0002044086831014507,0.0014147846546668109,0.013835937760819369,0.08020792566871589,14,16,40,24,4
0.00030538291016197236,0.0021747400742909814,0.0218518470839652,0.13432349023803875,18,16,27,21,4
0.00035167498074269095,0.002387626376024295,0.02703212751150256,0.16127293436270684,18,16,24,24,4
0.0003575752967035348,0.002272814697517866,0.027357594486071342,0.1542417514388578,20,18,28,24,4
0.00028998348504907784,0.001928550024212023,0.02287529792404171,0.1334632524513903,20,18,39,25,4
0.0002276446051190027,0.0014407034862307965,0.019872856687592463,0.10327386703217838,22,16,47,29,4
0.00015984724422963862,0.000953141388324053,0.015903511309226397,0.072054822612312,20,20,57,36,4
0.00015715215622272942,0.0009436216762759584,0.015086982293350303,0.07211445847311598,26,20,55,38,4
0.0001614540508943978,0.0009410067386134915,0.015379692464847931,0.06949170762390122,24,14,62,38,4
0.0001641343315119583,0.0009171267193001903,0.01623225313525941,0.07103100559646044,26,16,64,38,4
0.0001613489469645758,0.000901179218149501,0.016042221872322668,0.06793660183840121,30,18,58,32,4
0.00015847348613714447,0.0009251504185557893,0.015848096137333952,0.06838375388104236,30,20,60,34,4
0.0001614551467623033,0.0009462635757762061,0.01575967491458696,0.0704711452761917,24,18,55,38,4
0.0001548743708777881,0.0009137608821100731,0.015368398612737099,0.06875292448180628,26,22,57,36,4
0.00015059003859020404,0.000909376063960694,0.013869876566354813,0.06818025055716857,24,18,59,40,4
0.0001486842769884766,0.0008615071060026596,0.014027587631209074,0.06511201465894674,26,22,64,42,4
0.00014531247493025952,0.0008641871881197926,0.012941511043186754,0.06317935131881595,24,20,58,32,4
0.00015442920374474458,0.0009257643648911504,0.013715753291875105,0.06722075094947366,24,20,58,34,4
0.0001511559559780549,0.0009079668000377349,0.0130700136139073,0.06740980049733995,26,18,48,28,4
0.0001562972796123016,0.0009003269000300295,0.013594685930671757,0.06690210207667982,22,20,49,30,4
0.00015176676455498956,0.0009091210951966739,0.013297642407088542,0.06805032901839927,23,18,50,32,4
0.00015567885799002605,0.000887962219722013,0.012716734297097519,0.0654991487319469,22,18,55,28,4
0.00014994290639086234,0.0008686208005012807,0.013003910421635647,0.06439611470488173,27,20,58,34,4
0.0001488787795377427,0.0008594946267928194,0.012433737176979893,0.06461400182930145,20,20,46,38,4
0.00015390849874665326,0.0008617729722024774,0.01279740147819351,0.0642356014223472,21,18,50,28,4
0.00014974299281124347,0.0008700542924371085,0.012303499440547774,0.06437078519596881,24,20,52,28,4
0.00015806810005693304,0.0008822740339415509,0.012183151950014848,0.06557800139014497,25,21,48,28,4
0.00015664649851166462,0.000922349639743971,0.012593216213210807,0.06678892595765148,18,18,50,28,4
0.00015982341467222106,0.000951112171432391,0.012701403454445157,0.06804539984847789,21,21,45,30,4
0.00015779153013579402,0.0009506326645199108,0.012693601727842781,0.06783715812737884,18,18,46,34,4
0.00016005748833113973,0.0009284171911649092,0.012720721678544116,0.06717474814356354,21,21,46,28,4
0.000166608239414316,0.0009414547219770336,0.012380172666015023,0.06659965264429206,18,18,48,26,4
0.003192367611375689,0.002490754934610012,0.29758745722716407,0.2912088561693456,20,26,49,64,0
0.0035678884216981083,0.0026370772382443364,0.3331292562801069,0.29534097632074724,18,20,48,67,0
0.0030085594840552686,0.0024623564973019606,0.3153735022707878,0.3110145450184142,22,28,56,60,0
0.003308546686683458,0.002403577432161051,0.35079719675945437,0.2976185935934405,20,32,61,62,0
0.0034849426922321787,0.002809967181171103,0.3835711511629044,0.3147263094571313,20,24,62,60,0
0.003207841664541724,0.002777986726582303,0.3970455693642009,0.3282103877808921,24,26,58,64,0
0.003478462324890271,0.0026482528308214765,0.40129095603523857,0.30142884105080214,18,26,61,57,0
0.003119531755678747,0.002925946847859259,0.3460722549465377,0.3226473523495542,20,22,66,55,0
0.0026638182669657356,0.0023099051104136163,0.3036190836622028,0.27727075470562984,20,28,69,62,0
0.002405628624739048,0.00210407439934347,0.2714458582795337,0.26597997180821575,20,22,73,62,0
0.0021842469992077005,0.002271679876505232,0.28377377252700253,0.3022946820391323,26,26,74,69,0
0.0021888315135204913,0.002458331749557196,0.2892601544850347,0.2948549248628178,26,26,71,68,0
0.002390894211226569,0.002366524527708982,0.31689293943726515,0.3025656909893266,28,20,68,66,0
0.0024392663854822054,0.0027178142972045997,0.32021846460623626,0.30063930230540553,24,28,71,59,0
0.002599609954539116,0.002269790756006204,0.3291193576695378,0.27033090044926944,26,20,61,56,0
0.002246776793386644,0.0020574978971221822,0.2929583830099791,0.2531368844844441,26,28,66,59,0
0.0020471334508965168,0.0020557644472116113,0.2633527450337527,0.2445522320987939,24,24,68,70,0
0.0016937779786889411,0.001735841439409916,0.2331839388250736,0.24190154053418772,28,30,76,75,0
0.0018317389776699297,0.0018375771301146677,0.23353698294814404,0.23438583378588637,22,24,81,68,0
0.0017494803298272734,0.0020354524548547356,0.23547163488780054,0.25326348340760757,22,24,74,68,0
0.0016926206912172214,0.0022147765112346305,0.22186392035404484,0.26182617037679934,30,24,63,65,0
0.0019298976866660466,0.0020278363715037838,0.23474323402287928,0.2519516139054667,28,20,61,65,0
0.001741624243106762,0.0022205158945373055,0.1936854529598327,0.2595845062416516,30,24,60,65,0
0.0019581541338788847,0.0021835106668608804,0.21748055277499123,0.2223769435873342,26,24,64,67,0
0.0027354192410088117,0.003030405331899495,0.3180961208876662,0.3827734452126231,26,28,66,74,1
0.002823827557073949,0.0028028996372540626,0.32040645501448123,0.36311554363579723,26,30,62,79,1
0.0028220730550756116,0.002802326560634759,0.32380294411907146,0.3772587963645766,26,36,63,75,1
0.002596212809226544,0.002628273304808022,0.3063436497094037,0.36835327030434784,26,38,63,70,1
0.002376002738193487,0.0025458023608072493,0.2742024982182769,0.35437796383612286,26,32,64,75,1
0.0024125228769232977,0.0030627383483053418,0.284659445552949,0.36055287164520117,30,28,60,69,1
0.0020360134015889827,0.0026967177349818856,0.25971137455079446,0.3399754821617647,34,26,64,71,1
0.0018308559471954442,0.0027400670369377785,0.23103697820406144,0.3307021116379137,26,23,63,68,1
0.0018057266361179753,0.0025381882945627278,0.22033441397165668,0.3145101311422691,22,22,64,75,1
0.0016568151669569978,0.0022026612155662127,0.2036659833261575,0.30180148407847984,28,25,71,75,1
0.0018156537091377754,0.0026970460176464167,0.20711109517778067,0.32551397295420553,30,24,58,69,1
0.0019355707477598566,0.00264549407229673,0.2232444023821727,0.31001424402046057,32,25,58,71,1
0.002040523918624523,0.002745981834631547,0.2294804252656581,0.32368133745174454,32,20,59,72,1
0.002062966935705184,0.0029736060853750262,0.2263521876508048,0.3448450768579549,24,24,55,67,1
0.002100788539093347,0.002935908794638237,0.23028049571672662,0.3119498904675929,24,18,59,73,1
0.0023638293216495182,0.002720257273971421,0.23631877519412128,0.3180615491579082,24,21,54,69,1
0.002186583961612075,0.002631752946240326,0.23863892878346332,0.29653624095948533,24,20,60,72,1
0.002448554963206701,0.0025121047440853942,0.23548457983587115,0.28307965293178516,24,23,63,71,1
0.0021501834940558565,0.0025063602066401915,0.2378810969527659,0.27803360856430404,24,24,65,72,1
0.0019148347762181007,0.0025042640993068245,0.2285890757370102,0.2885827924838518,30,22,67,72,1
0.001847703661298983,0.0027428851774044865,0.22015806822225528,0.3325790457611264,22,20,69,71,1
0.001878883022137643,0.002362964057310849,0.21064459365652433,0.31016181757777694,18,28,73,78,1
0.001638644040397984,0.0025905049819338736,0.19350108154495152,0.3137961800111636,18,26,74,83,1
0.0017904577572793894,0.0027409115321621546,0.19741081492857027,0.3189866300908424,26,22,71,80,1
0.009907338731706702,0.0020866865937338645,1.2428732013223327,0.22500244384136098,26,24,66,64,2
0.010370645482214346,0.001696439973919074,1.2712465392267416,0.20825063776050373,22,32,60,72,2
0.008719111426364598,0.0016116612358026319,1.1505432819177892,0.1940282586384027,22,32,63,72,2
0.009295984399232985,0.0016022534871697814,1.0939726106242444,0.17710841280629158,22,30,57,65,2
0.008812178312778444,0.0018340885224578348,1.0705265728393143,0.19083531924793598,22,26,56,62,2
0.007567264176989615,0.0018308236212966345,0.9140597803985057,0.1824090751070772,22,28,59,61,2
0.008431845467891571,0.0017912817660062736,1.029437719153436,0.1869397976838672,20,24,56,67,2
0.00791378223813787,0.0017859007832970158,0.9751953645557848,0.19186526857550035,26,28,56,73,2
0.00659763191469617,0.0016199192543026677,0.9196578733916759,0.18146252396665566,30,24,60,72,2
0.006666802029245335,0.0018718099294869302,0.9501120645087044,0.18787686566980447,30,20,58,65,2
0.006274662726457828,0.0018235919335324025,0.8724671030350282,0.18770464432099085,28,16,55,60,2
0.006391953881110356,0.0018644960001072946,0.8852298790303699,0.1735973497167361,28,22,55,57,2
0.006279563703334589,0.0018597562887223366,0.776637008578949,0.16984488325525587,24,22,54,53,2
0.006415019710187593,0.0017196350975112532,0.7470123013726878,0.16815370360223467,16,22,59,57,2
0.005176668546304896,0.0015415606676537088,0.5848043361248628,0.1440799023303574,24,20,62,62,2
0.005375036050028813,0.0015257520872384348,0.5908911227042335,0.14923885439986645,26,26,56,61,2
0.00494726609837969,0.0013449705845996307,0.5922048855939711,0.13475365538530454,22,26,63,60,2
0.005014854202369351,0.0013251236380979034,0.6481432390463421,0.1319145703941186,24,20,56,62,2
0.0052501272702051216,0.0014279801722660134,0.6943781271907689,0.14109046510847145,26,21,55,70,2
0.00499879575529014,0.001381059305549963,0.6530717457594116,0.13500106980449958,24,26,55,69,2
0.00524195926563868,0.0015312945586062707,0.6389021943830304,0.13576461786810443,26,18,57,75,2
0.004879588932553189,0.0014717795151946603,0.5943948188368297,0.13172807424100405,26,24,52,66,2
0.005025925757101199,0.0015084726194533684,0.6226263718076337,0.13580012897267754,24,27,59,59,2
0.00487954477648674,0.0013810989310091655,0.6323049538927527,0.13459320851583279,24,24,59,63,2
0.0011689120900294785,0.0049389808932656445,0.1545096146278221,0.7631047229457085,26,38,65,72,3
0.00134255726368404,0.005390131116076216,0.17767982616376035,0.8523054773719722,30,36,63,67,3
0.00127477266878808,0.004852261725951221,0.16518461004808474,0.761947136293265,28,32,57,65,3
0.0012008868162918511,0.004942261134890601,0.16389932057979179,0.8479323966494838,28,34,56,71,3
0.0011028652108040027,0.004864128298781924,0.15984179966322223,0.8362597574318501,26,36,65,71,3
0.0010389443015661854,0.00423396622715477,0.14466282716831086,0.7331912882970922,26,38,64,79,3
0.0010854723892271122,0.004650123832213639,0.15692317226227345,0.7999762564572565,26,38,74,76,3
0.0011297879844736727,0.00482899806060352,0.1548925594244587,0.7763410604213132,28,38,74,70,3
0.0012213780399142257,0.004894008130817216,0.15756258749560617,0.7810652387429619,24,36,68,68,3
0.0011796734342866947,0.004876537510900029,0.15627500976151745,0.7980862161884452,28,32,67,59,3
0.001327984022244115,0.0052176117353954455,0.16517824660872196,0.7699477334448415,26,32,57,58,3
0.0012674052866507727,0.004740468363670657,0.16039322812724938,0.67800756160347,30,36,64,59,3
0.0012987535770246248,0.004811684451224363,0.15203416330397393,0.6443187465556071,26,28,66,60,3
0.0012140929413760283,0.004212253359469488,0.14919292636888107,0.6241194816803176,26,30,65,65,3
0.0009380556998062219,0.003796836479371778,0.12736396687726212,0.5830289028540464,24,30,67,73,3
0.0010145114821646405,0.00423235895008292,0.1267904848906524,0.5926200169973325,26,26,62,63,3
0.0010078548089416336,0.004063123751682559,0.12323680862401862,0.5818536323436325,22,24,57,58,3
0.001015500171508623,0.004153184057853203,0.1235951242264156,0.5893009523409566,27,30,50,61,3
0.0011166400557321905,0.004458278445931618,0.14049232421709384,0.6424113136022618,30,28,48,60,3
0.0012420858152547849,0.004805925725359572,0.14249250192701046,0.648528455157557,30,28,47,56,3
0.001155531690823918,0.004297795381220896,0.14339638592368695,0.6285633618579489,28,26,53,59,3
0.0010255723795636175,0.0036966941929223187,0.1338155209272053,0.5501252981780054,24,32,55,64,3
0.0010875658057185329,0.0040440563075474535,0.1339188959788042,0.5600030763162426,24,24,59,66,3
0.0011005458933011653,0.0037669593812197106,0.12765127258379497,0.5382714332856389,24,27,56,72,3
0.0001630761664189547,0.0013018619363138412,0.014466218951033609,0.08298044937577721,25,17,70,36,4
0.00016063643741540113,0.0012679290729874252,0.013521556355243417,0.08095040128731841,22,16,66,28,4
0.00015374875244516024,0.0013221075708889504,0.013234079553551855,0.08384631024433364,25,21,54,30,4
0.0001708976248780906,0.0013046824478865826,0.013383314076987228,0.08471479942677454,18,18,52,28,4
0.00016713102578844795,0.0013489570327603411,0.013444459339347714,0.08385463133770213,21,19,54,26,4
0.00017588421546464522,0.0013239884305261225,0.013061073785071617,0.08440477721258899,22,18,48,26,4
0.00017685956839699865,0.0014100915447453352,0.013000121942134943,0.08403355975998775,19,17,58,24,4
0.00018487837621598502,0.0013452410981106568,0.01325386139828361,0.08196332796354132,22,18,50,24,4
0.00017910838990774797,0.0013711867745502726,0.012191948751875084,0.08201121953298204,23,15,54,24,4
0.0001814083496194733,0.0013411479693294893,0.01346121067303674,0.08222297398115584,18,18,52,30,4
0.00022632466430113368,0.005794185224131656,0.016710296159235066,0.31310236813772957,17,3,52,83,4
0.0003264172270712807,0.0068705201829166555,0.022597907482377236,0.3644857431712686,18,4,46,55,4
0.00041708058257000034,0.006912299853702194,0.025837709742577902,0.37614197645226893,16,4,49,64,4
0.00042877840913729495,0.006653244793215065,0.024743580186221525,0.36583250715373283,16,4,42,55,4
0.0003530172607783547,0.002190558625506553,0.0215815694184104,0.14357486735947286,14,21,46,21,4
0.00017670451467703547,0.0014236153618357146,0.013288247299610208,0.08543471420420994,22,18,56,26,4
0.00018263453902668707,0.001496041532560329,0.012874806301923508,0.08748211078421934,15,17,54,22,4
0.00017756111294113593,0.0014849088427031224,0.012990433648024612,0.08550427939258111,12,18,46,22,4
0.000179211168024342,0.0014603617603834377,0.012258472928824413,0.08512667101486701,14,17,42,24,4
0.00018058237253563907,0.0014840124685543952,0.011683303269167477,0.0841304803211147,16,16,43,22,4
0.0001839260730377235,0.0014239653494753897,0.011644618818982901,0.08193089207395514,18,19,39,23,4
0.0001888737604042778,0.0015240135216803645,0.011550728254738366,0.08311621950997922,18,16,41,21,4
0.00018280433062573917,0.001489304457914553,0.011903298650587944,0.08207681086036162,16,17,44,22,4
0.00018833944801413348,0.001490609966354736,0.011798937448861992,0.08318721123767821,16,18,38,20,4
