f1ch1,f1ch2,f2ch1,f2ch2,f3ch1,f3ch2,f4ch1,f4ch2,Category
0.000612577465051955,0.001883725716130751,0.0886496940562662,0.19821012415419276,24,20,63,52,0
0.0012405497970669084,0.0030199217967685314,0.1793123551404763,0.3060282862638502,24,28,67,52,0
0.001633022015741907,0.003533823564375875,0.23704176934138085,0.3914524473163281,28,32,66,54,0
0.001858966652177819,0.003380529226326024,0.2813000515706674,0.4096301979044278,34,30,68,57,0
0.002067700335313353,0.003696967796225976,0.3227991003642168,0.4496979130737914,38,28,66,63,0
0.0017984238924882712,0.0036237758110512592,0.28811197544428135,0.4641452936464122,42,32,68,62,0
0.0016827877279567386,0.0037871993440313344,0.281705274544418,0.4493730948862184,46,36,70,68,0
0.0015560351478808544,0.0037336181230539856,0.24256432330196184,0.45994965345466604,36,36,71,66,0
0.0014312488616300707,0.003717373578412728,0.23475011870521537,0.4824765781189749,42,36,74,66,0
0.0013095258661455311,0.003364449217195237,0.21520243586286106,0.4599231129874197,38,40,74,64,0
0.0012840306387544935,0.0034293827023173223,0.2148330171517122,0.4700090739546523,30,36,72,62,0
0.0011895718561443017,0.0030781812901531287,0.19575884199006646,0.44640500040828257,26,30,77,66,0
0.0011689409593847546,0.0030442114261144803,0.18852177626778735,0.43108699285193297,30,32,79,62,0
0.0013029365560281705,0.003184165231876079,0.2199707427372248,0.4562446802286429,28,34,77,63,0
0.0011081843424587887,0.0031261049150449294,0.1858097436960361,0.4387943888874583,30,34,83,62,0
0.0012412002599599848,0.0031347357441496343,0.2014821547034604,0.4297571489433646,26,36,74,60,0
0.0011257633538814306,0.003289126757780596,0.17566885429217027,0.4141316347420106,32,32,74,60,0
0.0009471516495961007,0.003188458846143119,0.1514419637757423,0.35720598856855423,34,30,77,60,0
0.0009232312807145411,0.0030822121332775305,0.15365423561623978,0.3630735789997222,32,26,76,55,0
0.0007704574740520799,0.003405408359515136,0.1347790903616978,0.3775063012189101,42,22,82,53,0
0.0007773497719646291,0.003158942433824936,0.13535652238212567,0.365165748575134,48,22,84,61,0
0.000854077992001826,0.0031323869208439424,0.12287824942987355,0.36986757479156634,42,26,81,62,0
0.0008381290067968378,0.0030281789132238467,0.12338685803506347,0.3696003831420516,36,22,78,70,0
0.0008150988850769503,0.0028409221006910836,0.11525405195100999,0.38035533366135804,34,28,77,68,0
0.000768853191390071,0.0030809173921323347,0.12054065396493142,0.4222141500864847,40,32,82,66,0
0.0007464009259548826,0.0031135436262155623,0.12358526526400787,0.4473879569232733,44,32,83,65,0
0.0007438998549939089,0.0034365359025557178,0.11970903343901894,0.4624013372882832,42,34,75,57,0
0.0008438765309315605,0.003623193628654599,0.13786258263775633,0.46168923199651063,36,32,78,64,0
0.0008059804710871184,0.003213482280411027,0.13160468917921778,0.41171333605100374,28,26,79,62,0
0.0008024564182449463,0.0032007666268617646,0.12818540205441428,0.4221852136189984,30,24,79,66,0
0.0008118679725579621,0.0029584861830744603,0.13300384980748678,0.4104897944644728,26,20,81,68,0
0.0007423007482364012,0.0029684376906744404,0.12277796794236967,0.38816669115993285,38,24,79,68,0
0.0008339329299126165,0.003499026418765781,0.13417975500423313,0.43216617391199996,30,26,75,61,0
0.0009133918893890946,0.0033496690655934304,0.1483255941155049,0.39241599491198487,40,26,79,65,0
0.0009426091813640462,0.0035182902914282044,0.1540419704188717,0.39012120681116835,36,28,75,65,0
0.0010988548309424457,0.0034021614312618204,0.16497096775177472,0.4056411243143786,36,24,73,62,0
0.0011097845144128781,0.0036065864974374607,0.16869369376639987,0.4201428278220338,36,28,77,61,0
0.0010674667869735963,0.0036455334179601746,0.1629707476893826,0.44789566388633656,36,28,80,52,0
0.0009963757819237181,0.0037027716965501696,0.15165425617709696,0.45397404362812976,38,28,84,58,0
0.0010839434478144875,0.004279742639416442,0.15748323611373918,0.4739379701725698,32,26,80,56,0
0.0014993046513585768,0.004442583348608314,0.21359261796505136,0.4864247487181043,26,28,78,61,0
0.0018469868310382056,0.004397945018027279,0.2678854298076413,0.4978587349824635,30,26,74,57,0
0.0021560406031804545,0.0038546796328739956,0.3166568749733342,0.49798124015715967,38,26,73,64,0
0.0019978971844430513,0.0037452658479707308,0.3238359433682498,0.4902251252851833,36,26,74,67,0
0.0016020646312408455,0.003802949335001393,0.27002860470325507,0.47833664879267723,38,20,81,65,0
0.0013961443868968674,0.0037811781701016485,0.22496001528583318,0.4744629877834286,36,22,83,69,0
0.001249603316684151,0.004150128504740811,0.19725341821495893,0.49630722331322735,38,28,81,55,0
0.0013883990663282194,0.004350773097309686,0.20845672443127708,0.5102011151778946,36,32,78,53,0
0.003683724305178856,0.003982878734357954,0.4320120603091998,0.5332044217020561,24,22,56,55,1
0.0037643373328524413,0.004710036512189467,0.45863203638618333,0.6234590919549262,24,28,63,57,1
0.0027419429803242036,0.00486029175153186,0.363696459862417,0.6630644447181481,24,28,64,58,1
0.002482219755860727,0.004511354845207101,0.35087134956491733,0.6046326495981845,32,24,67,58,1
0.002192220847466576,0.004912861459977501,0.30421365239377834,0.6160403048151193,28,24,69,59,1
0.0022273036265597406,0.004706946753988484,0.2825099704366738,0.6196454779046805,32,22,65,62,1
0.0020457414367005657,0.0054722943418674995,0.2728505572395844,0.6889894623587898,34,24,67,57,1
0.001931234387825401,0.006282835311038738,0.2471402373031769,0.7539755572438224,38,20,67,56,1
0.001972363843902399,0.005963986344365603,0.2506445744186223,0.6906485747302386,40,22,63,58,1
0.0019173737138797231,0.00536088999800682,0.24773222511816018,0.6437157855715994,30,24,62,62,1
0.002106898914902641,0.004921279282815196,0.28390375443291826,0.6201693250371452,32,28,56,64,1
0.0018900311351737773,0.004092319851357606,0.2723113690059606,0.5798633084026334,32,30,67,65,1
0.001988763389849948,0.004426785856957665,0.28237150046276943,0.6027399987770201,32,26,68,62,1
0.0020197985897455147,0.0051384694059169135,0.3043389309491074,0.7108414403694359,34,28,69,63,1
0.0021507495188685284,0.004864616913896453,0.3119493687204811,0.6427008375095382,34,22,69,63,1
0.002492150753474835,0.005373209881323398,0.36444418361513786,0.7170021014696754,36,20,63,65,1
0.0024735867057073717,0.005455997300067628,0.36271125762971806,0.7095323330174019,36,26,64,62,1
0.0025548643110494145,0.005239364189862383,0.3567875909957009,0.6764536962566987,36,30,66,63,1
0.002444281161789357,0.006235038096366672,0.34243485317549016,0.7402030684714795,34,28,67,57,1
0.002267709570699599,0.004994365224790245,0.31843458117532897,0.6661172339319541,36,28,70,63,1
0.002421107714120892,0.00513220297487803,0.3466551575791059,0.6617441149817107,32,22,68,62,1
0.002342613555241629,0.005212508525262984,0.33820944972127936,0.6806116525960977,32,22,69,66,1
0.0023956796782064597,0.00552463814814544,0.3466934733252754,0.7586046091141672,32,26,71,65,1
0.0023610882008018156,0.00583119200927552,0.33397611182108533,0.7448139664673629,32,22,70,60,1
0.002148744527428418,0.005817061629147287,0.30375952590180955,0.7689101795194775,36,24,74,59,1
0.0021586724680764187,0.005245660682767898,0.3100678711738747,0.7279278807080409,34,28,68,59,1
0.002032186892765432,0.004050647252612663,0.28585896529013016,0.5645393529007395,34,26,63,62,1
0.0019884773330875174,0.004477491479632239,0.295175776429166,0.5882316407716829,36,28,64,64,1
0.0020803567480076686,0.0039193921543487446,0.2888129551499845,0.5299058100383163,34,24,62,67,1
0.0022352756047769925,0.003933319344342984,0.2783201408505194,0.5515665290706232,30,22,62,62,1
0.0023025307319310233,0.004097589256746003,0.30191478506483177,0.5773140751820962,30,26,68,63,1
0.002342320498561612,0.0037351492069948077,0.30031231059067426,0.5260362819540135,32,20,70,61,1
0.0023249250701946954,0.0038484763079504824,0.3043108924484879,0.5734748679824436,26,22,71,61,1
0.002535772543661659,0.003889554240308426,0.34869230414482444,0.5590594183579356,32,24,70,62,1
0.0022542677253199555,0.004034613043438488,0.33701485752712185,0.580820152014898,36,24,69,55,1
0.0021309710436046513,0.004449228728664551,0.317308333386403,0.6067693284781701,36,22,70,58,1
0.002088369266329995,0.004486110499078524,0.3074493210026378,0.5912615385402944,36,26,68,61,1
0.0018840203793389911,0.0039770529597147105,0.26749902176092605,0.517963777354325,38,24,65,66,1
0.0018259712065514175,0.00362191168416934,0.24172383138899628,0.5301401619491773,38,24,72,72,1
0.002403481555673505,0.003692394946161876,0.3047673587617083,0.5552255339247456,32,24,66,70,1
0.0028967487216110216,0.003980076444285886,0.3819644318306532,0.6243606033238809,26,26,68,66,1
0.0030127720254122196,0.005227343693140758,0.3765777366332573,0.6954302871023799,26,26,65,62,1
0.0033178835278150276,0.005057095240379939,0.4248736368407105,0.6474798482623498,30,24,62,55,1
0.0024526655096637527,0.004734219238008804,0.36485819457401475,0.6228480931871162,34,22,70,49,1
0.0022002398267220976,0.00447376965355725,0.32001225324966137,0.5279766855539528,36,22,66,55,1
0.0023001872221731505,0.004273981548836866,0.3220649107591277,0.5087323015588895,34,28,64,60,1
0.0022198678888501223,0.004376778357495104,0.3074029943302088,0.5636265816492753,30,26,67,64,1
0.0023780819285429675,0.005037036113888771,0.3232745734492295,0.6388515746010467,32,24,66,68,1
0.0028936833371642494,0.0009440379038396508,0.447427876449123,0.15499072908537495,36,36,82,89,2
0.0032408116908082536,0.001108284696188374,0.5572174203070812,0.18586181707909882,38,40,80,88,2
0.0037105698503970214,0.0012525239325247642,0.6730794806243845,0.21802543074597558,32,40,85,85,2
0.004140607797314036,0.0013502371656484507,0.7275029447861964,0.23592548125469337,30,48,86,86,2
0.004676944682282715,0.0013085530953935486,0.8254694562249354,0.24502814007261986,42,42,89,80,2
0.004972516821855513,0.0013331532545024101,0.8761729212233896,0.2580405244319122,44,50,88,81,2
0.004864197026959385,0.001282504283667581,0.9036642704832619,0.24442311106251563,46,44,90,82,2
0.004880543719018029,0.0013361999600271692,0.9502778252076156,0.244171140878108,46,40,93,81,2
0.004821698023554996,0.0012338369846862432,0.9177254055890138,0.22713822286768995,40,40,90,85,2
0.004864197598366756,0.0012066759487645278,0.9268945899031451,0.22389787828691057,40,40,92,80,2
0.004758988637148299,0.0012236833160606596,0.8486984300898475,0.23699416531696005,40,46,88,75,2
0.004103198114262569,0.001191588807510344,0.796067098644991,0.22684169603285415,38,40,88,76,2
0.00391193405894553,0.0012472782869200581,0.7702759531413013,0.2482940107389275,36,42,91,78,2
0.003590450382883472,0.0012491639937088977,0.7030795407439566,0.239795665049387,48,38,89,86,2
0.003965239845192926,0.0012738319193470874,0.7274209541441463,0.2409593461597547,42,44,85,88,2
0.00358671866511749,0.0012746166859946926,0.7190948412522038,0.24313746559476135,48,46,87,94,2
0.0035595838834002786,0.0011493888914695814,0.6686902431979472,0.22221584308838063,40,42,85,91,2
0.003393661054575922,0.0011278977204382866,0.6778456867169577,0.20628947882711793,42,44,92,87,2
0.0033393518748638835,0.0008943639020226407,0.6448095839533362,0.1746817607449366,34,48,93,88,2
0.002810216936980839,0.0009284252321779418,0.5580317818823165,0.16170945694000782,38,48,98,82,2
0.0026273881910142015,0.0008140693353104527,0.5358613772742107,0.1493654008043957,40,42,100,91,2
0.002350245445155594,0.0007702243831644867,0.47155445338527,0.14390880235490158,40,44,99,89,2
0.0023159371995187163,0.0008678426098979504,0.45050724814979104,0.15207434087238839,42,38,90,84,2
0.002369912276231232,0.0009301434874316976,0.44786202726834734,0.15479722257939557,34,34,88,94,2
0.0024966262713634604,0.0008313416323288171,0.46745227320610155,0.15752163288815071,38,40,85,94,2
0.003011906837128001,0.0009343709823940323,0.5167010599553479,0.18236289909892617,34,44,84,95,2
0.002760536607256386,0.0008894241070282645,0.5636814458129525,0.18650007568764418,42,46,90,101,2
0.002998579466247661,0.0008665606605406409,0.6294950733324889,0.18576682417658058,42,50,86,102,2
0.003046341650484957,0.0008770043863920372,0.633920754654501,0.1823203728217289,38,48,90,101,2
0.0030112105839749308,0.0007554982724486649,0.6269802016332552,0.15810017978136057,38,50,86,98,2
0.0029234445302412705,0.0007272432826858257,0.5579899696950122,0.13966090991630303,40,36,87,89,2
0.0028234351812803397,0.0006900540276165696,0.5306298870050944,0.12979740066245646,42,42,85,87,2
0.002820158990851363,0.0006411081719654338,0.4814903956142947,0.1257362892422793,36,38,83,82,2
0.0025795544613327137,0.0007798183287732987,0.44516202231556584,0.13918813391590057,32,38,81,81,2
0.0027009514019420864,0.000807849101338539,0.48128186091102676,0.15033174258687676,36,40,82,86,2
0.0026222303273477155,0.0008442178386329222,0.48429224378410585,0.1529292873365912,38,34,78,84,2
0.0027824858916418276,0.0008837540850331788,0.5684690435102552,0.16811021686812672,42,34,89,81,2
0.002954348958837792,0.0008786117597239176,0.6043466847460474,0.16407877663566311,52,36,95,86,2
0.003163776218306031,0.0008958195436183419,0.6266726473659834,0.1741943840756978,50,42,94,85,2
0.003284069181756606,0.0011682380370081147,0.6078511698767535,0.19392836293714139,36,32,87,89,2
0.0033973400694855445,0.001499796220014739,0.6335488702916089,0.20970670970196872,38,28,86,83,2
0.0039436599709410025,0.001522341057353552,0.6884456054727384,0.21247065581226257,40,28,86,79,2
0.004021224861697419,0.0016187083664470922,0.7670261280343911,0.2199504624981527,40,24,85,75,2
0.004553573247049381,0.0017114070242127898,0.8899299132696333,0.2321478972590783,44,22,94,78,2
0.00482181013784822,0.0019148488890117004,0.8920307088229118,0.2505328412702558,40,28,86,81,2
0.004554182861748645,0.0018893657295864703,0.8692173567681639,0.26825594492373966,42,38,90,85,2
0.004558035570306993,0.002008944509120285,0.808788831841978,0.273169309999075,38,36,91,81,2
0.004109298658108943,0.0018696640705724084,0.714255792085826,0.26534444543312563,40,34,95,81,2
0.0005765736808935472,0.007876512229694895,0.0890752165127093,1.0384740286008636,42,30,75,59,3
0.0006436613396639828,0.007172841353980442,0.09145267222866953,0.9982836524887276,32,32,67,63,3
0.0005622586306385676,0.006587350311908795,0.08786988030612189,0.9192850290337045,32,26,71,65,3
0.0005205697611459768,0.005353385649861317,0.0861606792425882,0.8171024879285286,36,32,72,68,3
0.0005018382467515428,0.0045471601132732915,0.07957889655780911,0.6656242824790579,34,26,80,66,3
0.0005076636985074049,0.004668322794615833,0.08279081624452965,0.6715007603849608,36,30,81,66,3
0.0005621194277013879,0.004954827257846232,0.09011438366908948,0.7325335709100057,34,26,86,64,3
0.0005366590981309336,0.005538404674763263,0.08905750181904411,0.8466219578371544,40,30,87,66,3
0.0006090953440747023,0.005757021152182552,0.08904579539123228,0.9162643786783451,34,32,85,63,3
0.000529593852790824,0.005856458001378865,0.08843026949495657,0.981306602112694,38,32,85,65,3
0.0005086410948140252,0.005697918660709542,0.08286606710455058,0.898173848847322,36,30,79,68,3
0.0005327726956187508,0.005620251587208208,0.08508090011032478,0.7472899503823793,36,34,78,66,3
0.0005254182860357514,0.0054031284554017225,0.09183039717934557,0.7643157396298128,42,30,81,62,3
0.0005358976153172132,0.004957093528400312,0.09644116435665324,0.7068260925694374,48,34,79,66,3
0.0005997348042318975,0.0047026399584222545,0.10213012681676176,0.7253891376756062,44,38,79,71,3
0.0005927347536032081,0.005026681155804719,0.1095798745738489,0.8019582991246149,50,40,79,75,3
0.0006071595120158809,0.004915287836645355,0.11097652441927097,0.8460511916986179,46,38,82,70,3
0.0006051743903106953,0.0049788494210478975,0.10679629929429854,0.8372749245917007,44,40,85,75,3
0.0005932821735965839,0.004815196144970099,0.10902533011038755,0.7806452806649081,38,34,88,79,3
0.0005620940476339091,0.004664166830171412,0.1081821424666454,0.7252209356916411,44,34,88,75,3
0.0005681675382206657,0.004158682725851067,0.11092098882002682,0.6490377430152653,46,32,88,77,3
0.0006469918685223692,0.004140967031577092,0.11347264170103202,0.5960326456124633,38,28,83,78,3
0.0006568802731427239,0.004422579662192088,0.11440067225773828,0.6694260124524737,40,34,85,71,3
0.0007073629773915344,0.004566317068280546,0.12377304833479831,0.7057100617133588,44,30,82,72,3
0.0007085937062546385,0.005046238276525924,0.11962438428531436,0.7784215973762183,34,34,78,74,3
0.0006816206420835078,0.004892207127458063,0.12018541965258087,0.8190328100047439,38,38,74,73,3
0.0006821063805574706,0.004847698880188155,0.1218549189518962,0.8157577744474381,40,30,75,77,3
0.0006597658478198805,0.0044896841305499145,0.11920760470024172,0.7664016037830227,34,32,76,79,3
0.0007276135631650932,0.0046093581454700544,0.11558399117712227,0.6978741309271737,32,28,75,81,3
0.0007231064562852986,0.004633788638718049,0.12025484932395321,0.702247268461187,40,32,80,78,3
0.0007458553480753699,0.004902360209053294,0.11985664484456338,0.7154721176601854,38,34,83,74,3
0.0007224121598399935,0.0050467534156797625,0.10888110105515758,0.7441125558688201,38,30,81,73,3
0.000765063759324444,0.005317497091267132,0.1103772568343908,0.8109745395094645,30,34,87,69,3
0.0008437826552205753,0.0049497708087285755,0.1123262706561145,0.8198197432614188,36,32,82,72,3
0.0008511825572362091,0.005427544537444113,0.12836945550511106,0.8337842525944369,36,26,85,69,3
0.000795704464793962,0.00539249934095026,0.12797793568677107,0.8598919344471009,34,32,85,71,3
0.0006942262923887049,0.005348647425097704,0.12403159416816001,0.8458546921844818,36,30,92,74,3
0.0005999853350974585,0.005074328283422032,0.11899583506547325,0.8132060546145224,36,34,89,70,3
0.0005692400307731312,0.004445074712906683,0.10418173146973211,0.7502653797964479,34,36,86,74,3
0.0006272630148796966,0.00471287068969484,0.10235248685371169,0.7161373102841679,36,32,80,65,3
0.0006252022942719998,0.004718649756928814,0.0927211321271255,0.7282598287591655,34,32,82,64,3
0.0005740001115030467,0.004575729098932888,0.08524467234392663,0.6797572528505617,34,26,84,68,3
0.0005043044556930859,0.005358109813977979,0.07944731762443241,0.7751999487326241,36,28,88,60,3
0.0005189453686267738,0.0056436901262884006,0.08186028434774889,0.783196762685503,36,26,87,69,3
0.0006412048482582315,0.0055622359177380076,0.09766109873228977,0.8512307271739089,32,24,82,72,3
0.0007080920639837604,0.006175395841751308,0.11013447766161578,0.9156757904906133,36,28,74,69,3
0.0006834932322664946,0.005760706489585071,0.10563519819685273,0.8463649145031662,38,34,70,73,3
0.0007271124707451153,0.005795076578220708,0.11617045374425522,0.833442531926137,38,28,73,70,3
6.694897414782581e-05,0.0001909429540441248,0.00937704027605472,0.025515363358077345,22,26,80,70,4
4.391522619515998e-05,0.0001287865456764821,0.005796722606894087,0.01750315261838308,28,28,77,71,4
3.974836143589224e-05,0.00011567197641681994,0.0056077984151218915,0.015946239908415937,36,32,77,72,4
3.982283206889646e-05,0.00013046646645057183,0.005579221128177717,0.015005111436179275,30,24,77,61,4
3.988047239635468e-05,0.00011806004859241028,0.005547733399582932,0.014388343192849427,38,28,80,70,4
3.694705205240659e-05,0.00012241662903521845,0.0053966259972366825,0.013561713141397869,30,28,84,70,4
3.510987974405653e-05,0.00011581645647596879,0.004965730244218235,0.01455276461560185,34,30,84,74,4
3.602445273771088e-05,0.00010635069553906816,0.005056833050240383,0.01374699358148089,32,30,72,76,4
3.9692647761864986e-05,0.00011405292342213017,0.00510222372676834,0.015016795129086722,34,26,70,73,4
3.989825757510978e-05,0.00011202166562539088,0.005199767532126528,0.014352731525403888,30,22,69,78,4
4.040930537176829e-05,9.047216873301235e-05,0.00534356403825675,0.011619369035712954,34,28,68,77,4
4.3344934208211824e-05,0.00013098399832683512,0.005784788456160349,0.016739148207663233,30,24,73,73,4
4.224478692607806e-05,0.00011254222794432763,0.005789544945137871,0.015781155234300407,32,26,79,74,4
4.222299433302529e-05,0.00012413596086597133,0.0059325886905534034,0.017046526933000183,32,28,79,77,4
4.458370466349026e-05,0.00013097344289561512,0.006283531793606688,0.018301133023786106,42,30,83,77,4
4.338003789330742e-05,9.916881573772507e-05,0.0057122822005646525,0.013885885800272613,28,38,76,69,4
4.091676335913885e-05,9.671256603498504e-05,0.0055607338854030495,0.01355289373120427,30,34,83,79,4
3.962745857112532e-05,8.831314233558306e-05,0.005430089495292861,0.01282477702837188,28,38,85,72,4
3.900019428611747e-05,8.849183507666135e-05,0.005229799290460054,0.012122175453584396,30,36,86,69,4
4.010647424744276e-05,8.071282263994935e-05,0.005404410974560724,0.011003644793342595,32,40,84,79,4
3.993117922816748e-05,8.687788820028839e-05,0.005499516016879517,0.0121392496513451,32,36,79,77,4
4.050672500652402e-05,7.79761164560731e-05,0.005648150177535309,0.010615580033454272,34,30,77,73,4
4.0058327131586815e-05,7.668702112763411e-05,0.005490825149725145,0.011148619046283104,28,30,71,74,4
3.863016036560583e-05,8.13803931852879e-05,0.005309710257864747,0.011241502201221562,26,24,74,80,4
3.827144606078488e-05,7.927411336358759e-05,0.005510751054729057,0.009924539411611352,30,22,74,75,4
4.204094908823795e-05,0.00010793328169232818,0.006276088921071034,0.01369394335861418,38,26,79,76,4
4.176645082773523e-05,0.00010434667329981578,0.006545088081910893,0.012785803812729049,34,24,84,76,4
6.903654155333199e-05,0.00035303557280808777,0.008814901011083365,0.0336433981530305,29,10,82,62,4
0.00029918753565916104,0.0004463647920065887,0.020757347634439385,0.043816567959727215,7,14,83,67,4
0.00031668586393821847,0.0004714983329888634,0.020725731010546564,0.045419590244898916,8,14,72,65,4
0.0003184240593554551,0.0004144317999753115,0.022049691080211535,0.04661403493375055,10,14,56,70,4
0.0002873539028125492,0.0002836444174345269,0.020997253600696777,0.03404969364743767,6,22,67,70,4
5.8672097338773635e-05,0.00019744981576466577,0.011123732543134443,0.030722778466920248,36,30,92,76,4
5.49899755403947e-05,0.00019901155693070551,0.011029794196832365,0.03000579606825521,38,28,91,76,4
4.845249988986954e-05,0.0002519049640378222,0.009774446306688863,0.032866203202580546,52,20,95,73,4
4.7560438690571817e-05,0.0002602392069230841,0.00970243015562154,0.03434311264797406,50,18,91,76,4
4.396440463704659e-05,0.0002737987913889009,0.008372137944616772,0.033299919956548005,42,18,88,75,4
4.2296296477038886e-05,0.0002846591992898239,0.007970359865169816,0.035610589205449676,42,18,88,68,4
4.630037969819857e-05,0.00023782886130399624,0.007678802738835434,0.03233196489393557,32,24,82,71,4
4.7686493877034975e-05,0.0002382659613912007,0.007555206956676218,0.0315699239036982,32,20,84,75,4
5.060508532950327e-05,0.00030211161608792165,0.00821439563394377,0.03788667787022736,32,16,88,70,4
5.045978291331981e-05,0.0002814296537388468,0.008691942927395634,0.03544027176382194,40,22,87,69,4
4.462779029300014e-05,0.0002620920768292256,0.008558621800648153,0.03351015136150409,40,16,90,70,4
4.142816895236611e-05,0.00023821126164754518,0.008010191321299806,0.0307456781593795,40,14,87,71,4
3.8638061074130825e-05,0.000158112096230535,0.007142957344987069,0.022800245840556503,42,24,90,76,4
4.204640023985944e-05,0.00015916542210510975,0.0072208189819640755,0.02382177407369672,46,26,90,79,4
3.8401784290051225e-05,0.0001437299075290005,0.006673546125189106,0.019979777760575135,48,30,93,85,4
4.437156112217134e-05,0.00016044047269145586,0.007224155012193789,0.022563759690438123,46,26,94,81,4
0.0008577951192128766,0.003503727796612735,0.12667098123385248,0.46687164326818686,38,32,83,59,0
0.0006826835193694719,0.003204795688520633,0.11495263535691541,0.433462729614561,36,20,89,67,0
0.0007055528680014429,0.0035988127057981884,0.11260319463114264,0.43648035879232927,42,20,82,68,0
0.0006825073572168388,0.0034225017053899297,0.1191549065543568,0.4268413050999315,32,16,86,62,0
0.0007438537194125555,0.0032803874570297652,0.12013396019349623,0.42882076347635095,30,22,86,58,0
0.0008752626295393474,0.0035446229566143705,0.13666315169199342,0.4410549921046971,30,28,83,58,0
0.0008384332539337122,0.0033008941468741387,0.12826877975596615,0.4333144484068759,24,32,81,61,0
0.0007420467868834955,0.003057787126941591,0.10226486264049893,0.37336269448559656,28,30,75,61,0
0.0006146468427873071,0.002626160599665054,0.08359888969053271,0.2965666465614665,24,28,65,59,0
0.0003233593863947136,0.001954476809463436,0.04528478190068873,0.20115079591099486,28,24,69,51,0
0.0002038442191755266,0.0014088661029794383,0.025185765806981692,0.13212085832540635,24,16,63,50,0
0.00026525921368936867,0.0013782972104675842,0.02976851898364629,0.14506715808374807,16,18,64,53,0
0.0004976222354162212,0.0015258506191890273,0.062175014142452203,0.1768147693587649,16,18,64,58,0
0.0008909045813542574,0.002371353083058341,0.14670305559119196,0.29801646412596594,28,22,71,65,0
0.001223250797842984,0.0030178042569064018,0.1892502050705926,0.41172831194299725,32,22,66,64,0
0.0015028753299428919,0.003727483659871417,0.22888326687233027,0.5086416605483635,32,26,69,70,0
0.0016197113115920877,0.004099018049796273,0.24145396119152143,0.5619010664540518,32,30,69,65,0
0.0013269868610286952,0.004162632941348162,0.1944982924740599,0.5433056605084317,34,32,64,66,0
0.001161042897661701,0.004386362234636228,0.18023852551719896,0.5270362983748829,34,32,70,63,0
0.001041797789515791,0.004073406372826614,0.1721665125478304,0.5130539794845604,40,24,72,67,0
0.0009322094066387303,0.0037108956301381384,0.15046208047204213,0.506449487767426,36,26,72,72,0
0.0011290143032087745,0.0036913072939149805,0.1712264799131308,0.5162336417823533,32,28,71,71,0
0.0011065599694537105,0.003673147961040515,0.16581440614643972,0.5573535038454142,32,26,73,68,0
0.0009940944844486598,0.0035221402392993373,0.15738261594386663,0.5485446908913563,26,36,74,66,0
0.0010027774163521002,0.003417075714635591,0.17061727410029162,0.5112874482532426,32,26,74,68,0
0.0008919848366126923,0.003535953186017255,0.15521401459116896,0.47891767408430197,32,30,80,64,0
0.0012767742967016566,0.0038807850521893066,0.20157981165844596,0.5013774522803868,24,25,72,58,0
0.0013876311330890164,0.0038968505146514433,0.21311003578021623,0.4761308360093832,24,28,75,53,0
0.0012559979831910967,0.004061950874647647,0.18916123668285612,0.4777344599075088,30,24,73,56,0
0.0012957778829695505,0.003943011523420127,0.1880134776628027,0.47486299156760214,22,28,79,57,0
0.0009990448865946934,0.0034747974430907407,0.15956750294645583,0.42069348905185866,40,28,80,61,0
0.0010934565272531199,0.0038970865634404377,0.1744496566368268,0.43932388682232637,34,26,77,59,0
0.001085090222909775,0.00394742613608568,0.18409361648928804,0.4703166069311766,34,26,76,59,0
0.0010908137112453818,0.003938237578548373,0.18204498414073556,0.47402751534929405,36,26,74,58,0
0.0010499727263607807,0.0037081023237899137,0.182273832216365,0.4630014923122781,36,22,75,63,0
0.0009727292699878938,0.0035608814608442813,0.15475147733813677,0.476390351099018,34,28,83,69,0
0.000973600141449683,0.0034692718841191237,0.15321716965900528,0.4314348793566426,40,28,77,60,0
0.0009001361480633147,0.0035870145692040705,0.16031237994562766,0.4590938610065512,38,26,78,61,0
0.0008522205105781929,0.003127571457230513,0.13904477041235594,0.422885890697507,36,26,80,66,0
0.0009450867857396983,0.002902559333968401,0.14948111263302827,0.40050545538860016,32,24,82,64,0
0.000888669932338281,0.0028483908725231172,0.14900397680785402,0.426032989924719,28,26,83,61,0
0.0008800801934481615,0.002822604494192173,0.14547683664643132,0.4000997550197434,28,26,83,59,0
0.0008667565069755462,0.002865849718666919,0.14535845398767153,0.4103776109576856,30,26,85,60,0
0.0007408243584406459,0.0024764432422984487,0.12870753571595586,0.3685884815351236,30,32,78,62,0
0.0007410046105529626,0.0029490245220136356,0.1261254315051348,0.37490987888150323,32,28,81,60,0
0.0008042954743296226,0.0029416599017688507,0.12797594946800137,0.39340549365558247,30,28,74,64,0
0.0010496326334628752,0.003376528209940311,0.17658947711843612,0.43004699085697357,30,24,77,61,0
0.0010573331265981724,0.003975584583313474,0.17921579858796968,0.505833889526807,32,24,76,56,0
0.0010545010325038928,0.004172196243204659,0.17236909789748303,0.5247440577413084,30,26,81,58,0
0.0018999954331791967,0.004015366658769584,0.2663700418826271,0.5107593475338984,26,26,73,71,1
0.0017375823586746918,0.003942852204005734,0.23738520385395098,0.5343964317176378,20,24,69,61,1
0.0016470733788646085,0.0033363803912829677,0.21082105269712267,0.45923931124843226,18,22,71,64,1
0.0021863358873697386,0.003957674423064584,0.2719815973904435,0.5309360375401038,22,20,67,61,1
0.002152811743241242,0.005255767337928682,0.26793660805348885,0.7437077343300436,22,24,63,58,1
0.002421928950851615,0.005068894064632929,0.29512480904902,0.7314197342025239,26,24,63,63,1
0.002191028335906306,0.005078264327473076,0.28539183667527096,0.6999544922133636,24,22,65,61,1
0.0016319175492931195,0.004571111476301178,0.22046713859160738,0.6662898911041408,30,22,66,57,1
0.001343022971703062,0.002880167853178812,0.18338601182147968,0.41019650535606844,34,20,67,61,1
0.0014614535253753616,0.002982081753652194,0.18565354964014735,0.4053907247594221,22,20,69,59,1
0.0016012914767228883,0.003121188037128456,0.20822285686938777,0.42723570553886225,32,26,71,58,1
0.0016965457017676247,0.0031608873352762645,0.22971009339041967,0.42384126038147646,36,26,71,62,1
0.0018903899463501592,0.0034239811680535186,0.2554418459234067,0.4685419162615072,40,28,71,56,1
0.0017642256942645145,0.0034268932343952518,0.2504611758845656,0.44595613490856834,34,30,70,59,1
0.0015753480930825311,0.0036229718529287858,0.242561974041553,0.4651437575020732,36,36,67,61,1
0.0014101052789526102,0.004165568727822203,0.22755221606404583,0.5164196384190061,38,30,64,62,1
0.001561716872589984,0.004520796973272103,0.23686716185659618,0.5403658821913535,34,26,61,57,1
0.0017175172408387706,0.004674670229087168,0.24051147870688755,0.5735483699908158,32,26,62,60,1
0.0018991173465085906,0.004682151676392082,0.2659992360146388,0.5613782515674115,36,22,62,59,1
0.002164492321885568,0.004219696203431087,0.29578041828190255,0.5377051615821772,36,26,61,63,1
0.0020180085871196246,0.004681902365605426,0.28703099466276666,0.5675990268950492,26,22,63,58,1
0.0020158831514179433,0.004683728183987719,0.29372264941499315,0.5668361396588988,30,24,66,62,1
0.0019395443448164992,0.004267317410473978,0.27574295461514853,0.5958217232219049,32,28,64,65,1
0.002013070054648281,0.004249140262257752,0.2882342751230452,0.5664509247507058,32,26,64,62,1
0.0020462959367066893,0.004295892875954737,0.28823113585863036,0.572627468151769,32,30,64,60,1
0.002188824367650181,0.004409857446778837,0.2978099243689761,0.5927469734065003,30,28,63,56,1
0.0023492747122204043,0.005363401899055201,0.3373061638959603,0.656203004301488,30,30,62,56,1
0.0024334854763875327,0.005221011391049358,0.3452762561260063,0.6534263211865348,34,28,66,64,1
0.0023330872309185657,0.005381746440990141,0.34309212370819103,0.6481054497754088,34,24,66,65,1
0.002184694501874736,0.004866712709714663,0.30702414039341086,0.5740102705150174,32,18,64,67,1
0.002154565193917966,0.00431923391548015,0.2869919332172902,0.4718900537933535,24,22,68,61,1
0.0018631660404729786,0.003955694604099775,0.25765026212953646,0.45256842791372787,26,16,68,61,1
0.0019317926372360255,0.004104217903022973,0.2700559376428914,0.4926336724422193,24,22,68,61,1
0.0017748403308064068,0.003471839780992464,0.2577135552194881,0.42984255150312745,26,22,64,62,1
0.001588767360096052,0.0034238190239693957,0.23623932973850698,0.4337908578566859,36,20,70,66,1
0.001545644647525915,0.0035802957323948768,0.2181090752247837,0.4320050803814997,38,18,64,70,1
0.0013833589157005387,0.002842351239033824,0.20169745075884785,0.3647151163197902,36,26,68,80,1
0.0016401196099360036,0.003164491712518343,0.2260959463982355,0.43595131070466137,36,26,62,71,1
0.002016647688709924,0.002815784988478814,0.22647036053925204,0.41039338255077173,26,28,58,65,1
0.0021766309113834593,0.003434351822321873,0.2565740844444177,0.4663758017709864,34,28,63,65,1
0.0021631824662688374,0.003480186425664217,0.2725632164466588,0.4912838100048551,28,26,61,66,1
0.0022942387350838507,0.0034056919116840067,0.28271507962241,0.49083648917821965,28,26,61,68,1
0.002168678405449716,0.003441853542289476,0.26075206638037834,0.4833734026498791,28,26,65,68,1
0.001787604055386209,0.0032987833656416355,0.22391502199610488,0.4277643797163968,28,22,66,63,1
0.0017000539981550885,0.0025929064917441153,0.20430089909190383,0.33988729622940483,26,26,64,68,1
0.0014435698378078418,0.002849821553993227,0.18291398726070476,0.34664272367922544,26,20,67,64,1
0.0015436051908701257,0.003259942196904369,0.19072601686145896,0.3937301865723545,26,22,61,57,1
0.0014801999948823757,0.003731222242448278,0.20618368506685142,0.4660295560142553,34,24,62,61,1
0.0012739232708422108,0.003547989813873232,0.18642637570997425,0.45566083522059686,32,24,67,59,1
0.0034193240081039937,0.000811528978193374,0.5927806920345966,0.16023758725438858,36,46,89,92,2
0.0030611150042275624,0.0007683556273367225,0.5019994525366006,0.14078145441121281,34,44,93,90,2
0.002798664347184074,0.0007386677819414486,0.4713206929183308,0.13136060339294486,36,42,91,91,2
0.0027040905299515845,0.000729207875211892,0.45208629845660686,0.12688726521534416,34,36,90,90,2
0.0026259153272497424,0.0007165997974679861,0.4593480519531862,0.12966583097946197,44,46,87,84,2
0.002898371903518609,0.0007866861317228675,0.5379131538165494,0.13735227844818115,40,50,83,81,2
0.002844526932559387,0.0007896699013723644,0.5364407372190133,0.14213380810197207,42,42,86,86,2
0.0027557508318696595,0.0006780786138410236,0.4943463302219932,0.12123545910980264,48,42,85,84,2
0.002317756709532544,0.0006897984347062975,0.42793522316550603,0.11177118797841558,44,30,83,85,2
0.0026484319247147992,0.0007157543873134989,0.4866480707359662,0.12314023838699881,40,40,85,84,2
0.0026878671628773245,0.0008078963696085276,0.5022685818854287,0.14308466282906285,40,36,81,82,2
0.0032417490188814124,0.0009143630946845112,0.5762634054386094,0.15892309036263672,40,36,82,84,2
0.0035794355796679935,0.0008953809579235452,0.651733337818469,0.17422760934899836,38,52,77,86,2
0.0033634975654947778,0.0008305618220255948,0.6295931299678749,0.1605473305709347,42,52,77,89,2
0.0034972289749276384,0.0007911679475414238,0.6462004355404797,0.14359758797836267,36,52,80,86,2
0.0032207293978295994,0.0007311915489646128,0.5802488951563826,0.1410886795810166,44,50,86,85,2
0.002709103455910392,0.0007123425394219915,0.5033928385623051,0.1290253832102385,42,40,89,89,2
0.0025389722977627997,0.0006893727170060394,0.4527829358260378,0.12666543179653467,34,44,89,91,2
0.002233308690501241,0.0006991380628603894,0.39254127872273015,0.12124680584592804,32,40,93,93,2
0.002761660287397755,0.0006168287958117622,0.4538725517599335,0.12088521514853547,30,52,83,94,2
0.0029589220629384154,0.0006004113176703615,0.5249364533978667,0.1261775193278614,30,54,87,89,2
0.0027047467048834577,0.0006196836834182054,0.5261502166368229,0.12892755441262246,34,54,81,89,2
0.002727234361450675,0.0006128198771831853,0.5142539991250895,0.1260144716196618,38,46,81,85,2
0.0021603733329168375,0.000631286857747816,0.4424566847075269,0.12347259886729589,42,40,83,88,2
0.002303103378506337,0.0005996107446570718,0.4178302558171444,0.1158968317288786,36,40,84,82,2
0.002307063821039388,0.0005941916388152703,0.41530156584580047,0.11363678763689442,34,40,87,79,2
0.002447738956914338,0.0005581143307655251,0.4577403559629917,0.10803825015519401,34,46,88,84,2
0.0024640577446721737,0.0005383045276367243,0.4562176457387598,0.10850301354968356,34,52,93,84,2
0.0021350388683190878,0.0005420876261658748,0.40712336998748117,0.10609584733306641,36,44,94,84,2
0.0020046935338480735,0.0005367968089711921,0.37241618309891406,0.10001098345734756,30,48,93,89,2
0.0016235267264052742,0.0005848495458763584,0.33680137165378454,0.10754913628511684,42,38,98,86,2
0.0015008898053785527,0.0005264590157654503,0.3157624487158397,0.09811017766620686,48,42,98,86,2
0.0015184662093009553,0.0005774600753048369,0.31738945059247464,0.10640036147077436,48,50,93,88,2
0.0015186049062333815,0.0005319956830148758,0.31608176281879563,0.10575732208204366,46,48,96,85,2
0.001678869323471366,0.0005283231906673661,0.3252006664836809,0.1015787457588773,38,44,92,86,2
0.0016717502396941203,0.0005030126236439942,0.3408974698416937,0.10320023325982665,36,52,90,87,2
0.0015906856646765758,0.0004440361014670437,0.3221956526421936,0.09279506644407451,34,44,93,91,2
0.0015773952310606648,0.00043333769225098657,0.3157181738987561,0.0891080763389232,38,42,86,91,2
0.00160265116889349,0.00041922365161978085,0.2650860148101685,0.085190777415161,34,44,80,94,2
0.001444344952515588,0.0004180478878961742,0.2368870923069944,0.08061654800965497,32,32,79,95,2
0.0014236310308747926,0.0004172894277313022,0.257796042673438,0.07829239267271006,36,30,78,93,2
0.0013502588908441368,0.0004320526832305716,0.2446123919705008,0.07486959710804722,42,34,80,90,2
0.0012492554117736732,0.000400100698255014,0.2459138146487531,0.07310455097244621,46,38,90,90,2
0.0013135496164988518,0.0003849703138874202,0.2435666746179993,0.0696583550798867,34,40,91,94,2
0.0013515099671895046,0.00041730611839916205,0.26441828535983297,0.07127962620983179,30,38,95,87,2
0.0014947396525767736,0.00046804110766261357,0.28506017554726243,0.08546166299858725,36,36,93,85,2
0.0014869128353275753,0.00045393464678431943,0.29054063018573906,0.086311294362241,38,44,88,82,2
0.0016425208444271328,0.0005304686224492253,0.3264460873546511,0.10127426955654378,42,44,90,76,2
0.0016013634723452568,0.000581390635659563,0.323726289366821,0.1084264256784626,42,42,94,79,2
0.0005397065531578916,0.0037952766855968395,0.07845684201872347,0.5764958466666684,30,28,73,73,3
0.0005040462089525871,0.00391379055077291,0.07589482715908699,0.5613881062568796,32,22,77,75,3
0.000461104578596772,0.0038974047346491745,0.06688010094143876,0.5112765441827652,28,18,76,72,3
0.0004574732148285379,0.003299595578499764,0.06424597582072182,0.45817861349223443,32,26,75,76,3
0.0004828473925486087,0.00309247642675141,0.06510907469681906,0.45179498481737257,32,36,76,74,3
0.0005525974843698047,0.003405126184514007,0.06951258771961766,0.49124151667865806,36,30,79,75,3
0.0005818543495524929,0.003810288096244721,0.077133729058773,0.5291500822197549,32,28,77,70,3
0.0006137048138763006,0.004035419986015394,0.08550954607697674,0.562885082147729,32,28,79,70,3
0.0006058699147998254,0.004044667825917769,0.09067305846338825,0.5461348867192733,36,28,83,66,3
0.0005336888237134517,0.00389503402151149,0.08013899209047858,0.48565199143639426,26,22,71,62,3
0.00047270040173930995,0.003712807267229289,0.07127949494764474,0.46825044695731444,34,20,66,70,3
0.0003966326497792397,0.0039375574562695815,0.05682580084799354,0.48860285091305317,28,24,65,62,3
0.00031511151609119243,0.003282497751799933,0.04179297520352657,0.4313803492175328,32,32,60,69,3
0.00029626180059652893,0.0034888167561221207,0.04506342392369299,0.44297903867296545,36,26,71,76,3
0.00031953275987554744,0.003269985147070466,0.046717926075795474,0.45902898575503714,34,30,80,75,3
0.00036811464920196655,0.00303165739625332,0.05272292173561929,0.4365645313058115,32,38,73,79,3
0.00040657955058545685,0.003950599375153146,0.06412252815641092,0.5635612326311682,28,28,75,73,3
0.0004675125038455332,0.004290617977299638,0.07609456662252141,0.6483387152456831,34,34,72,71,3
0.0005257805765674562,0.0044949130619258894,0.08219668559009981,0.7030326768450451,36,34,69,73,3
0.0005750909458705971,0.004996147636431036,0.09248972407311375,0.770385607911418,38,32,76,70,3
0.0006121657018448897,0.005580351031735376,0.08825239933171251,0.7153960715482564,32,22,87,68,3
0.0005777916628865131,0.005688035592481965,0.09119330757846249,0.7904855707091657,36,26,83,67,3
0.0006013312972795142,0.006080948507618862,0.09375988760800466,0.8345257404847246,36,24,84,69,3
0.0005620305526963886,0.005852248863678031,0.09731953676050309,0.836915508178371,36,28,80,67,3
0.0006863915573231562,0.005925626722050564,0.12427796282129479,0.873776063584893,36,24,82,75,3
0.0007130150907856176,0.004716552502449378,0.12731833761947284,0.773337824806144,38,32,84,75,3
0.0007646846042215998,0.004784126903963411,0.12998373069639055,0.8024350019956451,42,34,85,75,3
0.0008353316245000802,0.005594614433005178,0.13483389505181279,0.8537174712125472,36,30,85,70,3
0.000782637023565531,0.005329281943203375,0.12053442303470549,0.8224471994854216,44,32,86,72,3
0.0007969636791936925,0.0059487813953705716,0.12226638232472253,0.889963773389339,38,36,82,70,3
0.0008058608220664309,0.0056767271583674835,0.12540955344223587,0.8169106999323038,42,28,81,69,3
0.000734298658512851,0.005255232966811067,0.12194706339096544,0.7934005219026355,44,32,76,68,3
0.0007265522531226469,0.0051491782915605334,0.115383525192208,0.7976369021858597,36,24,72,63,3
0.0007129198099893072,0.0046552260599365845,0.11556093577384885,0.7455860971531103,34,28,71,69,3
0.0006573691321382865,0.004201819107491507,0.10939770491574463,0.6788714963785296,34,30,73,70,3
0.000648171585283314,0.004420827909428174,0.10699644779278276,0.6726876555277248,40,24,76,74,3
0.0006742905509535665,0.004728434849740316,0.10940044706720577,0.702131887312307,40,26,80,76,3
0.0006912936867049968,0.0046316576675196125,0.1087805160199272,0.7286104924928734,38,28,80,69,3
0.0006514571515571639,0.004826604519259801,0.10582803539384363,0.7374027109538395,36,24,81,73,3
0.0005736756234090998,0.004536848027903175,0.09592510502542018,0.678412343733027,32,30,85,70,3
0.0005377714461888742,0.003807517505384077,0.08662394136228665,0.6260213879698585,28,30,81,69,3
0.0004664963154479478,0.004130234477330129,0.07377532276199156,0.612648224517264,36,26,82,68,3
0.0004974851881195439,0.0039354804777120625,0.0734426486404,0.6003470950234998,38,36,81,73,3
0.0005336924404897803,0.004379901195621035,0.073251788720951,0.5889296790346664,32,24,85,78,3
0.0005263346548237339,0.004147180585868021,0.0748675362612356,0.5579312404478025,38,22,85,82,3
0.0005521743413034749,0.0038981230093454024,0.0845401994824338,0.5528201999026724,34,30,87,77,3
0.0005123162492744327,0.004199366024579862,0.08196239134807293,0.5613103593525703,40,24,84,70,3
0.00046837148258045523,0.0038269618615712725,0.08667336038595976,0.5674061060364631,46,30,84,66,3
0.000512312706545601,0.00435426668728127,0.08705883229619056,0.6408658883086925,50,32,81,65,3
3.5574623306533125e-05,0.0002642148460723643,0.005372616645703881,0.026333104932134324,40,12,85,65,4
3.752504496742284e-05,0.00025503162849057823,0.0055488891813314685,0.0258421670554497,35,12,82,67,4
4.1315436486037554e-05,0.00027793867695373713,0.005610151256420565,0.028232829635757045,36,10,78,63,4
3.999307758469658e-05,0.0002309577389134709,0.005637379374469316,0.025480474564955793,30,12,83,56,4
4.174589901420521e-05,0.0001691469861472692,0.0055055849201264264,0.020302820235984672,28,28,83,69,4
4.206964240897673e-05,0.00014719308009037677,0.005829828427212212,0.017519334852725506,31,26,77,73,4
4.216867598437119e-05,0.00010026759364260494,0.005969351770955712,0.014370700192756056,26,30,77,80,4
4.058597316207769e-05,0.00014182577537090368,0.006142903437071805,0.015288593592995899,37,16,76,74,4
4.3780496116520476e-05,0.00014139169461186484,0.006514836462671451,0.016452867214803112,30,16,80,66,4
4.608691576353182e-05,0.0001459986439274053,0.006502379716171941,0.01633675729724681,35,20,80,72,4
4.656914794188412e-05,0.00014290730558366878,0.007244804496550523,0.017351668677180597,28,22,79,70,4
4.3985934089952536e-05,0.0001165227086690783,0.00700089841531288,0.015213407981796495,31,26,77,79,4
4.6134343204291656e-05,0.00011491984460354017,0.007374494754772744,0.016169527639401538,28,30,81,82,4
5.002198793325387e-05,9.791124039494105e-05,0.007138066362093306,0.015570424595467699,29,33,75,83,4
4.133225840027715e-05,9.664943176354926e-05,0.006395103824274438,0.014663181541542373,32,36,81,85,4
4.140208089159873e-05,9.675271428365349e-05,0.006197612868608164,0.013374678517745682,31,29,83,74,4
4.334969119670094e-05,0.00010666755284732795,0.0056839988331942246,0.014686190254047925,24,28,81,71,4
4.4306386937138145e-05,0.00012007405607037235,0.005904648206266867,0.016407132268415996,30,27,84,72,4
4.425781738598825e-05,0.00023440468183397138,0.005653290821392152,0.021065052912122486,20,14,75,64,4
0.0001859130293939008,0.00041926366559577523,0.012435811119737182,0.03877475492657768,4,16,76,61,4
0.00018985782064855083,0.0004621017706753,0.012119638098502982,0.04555664990323852,6,14,70,71,4
0.0001824126483353657,0.00035604411068562594,0.011403985521762817,0.040546735686055484,8,10,66,70,4
0.00017079268847945995,0.0003730981169908508,0.011449343972405778,0.04555899213147552,7,14,66,66,4
4.042820687109225e-05,0.00022854124765903994,0.0060408460789303465,0.029611793933778077,34,22,74,68,4
3.959418498442901e-05,0.0001978515593921955,0.006129412994960243,0.022947382062523804,36,24,81,57,4
4.388328848353412e-05,0.00025126030826029127,0.006617211034427729,0.027618082975994412,32,24,74,55,4
5.192450388849746e-05,0.00025101429895843253,0.006226453839761244,0.02665362060030299,28,20,79,67,4
5.4162971939327294e-05,0.00027595772691263367,0.006646065039217367,0.02910151093344633,30,24,67,58,4
4.994394171100684e-05,0.00026505903624798085,0.006461399953033086,0.030815088097827723,30,30,68,63,4
4.630117309818264e-05,0.00024033579929771655,0.0057912910479119345,0.030417322568905426,24,26,63,60,4
4.7297108355573555e-05,0.00022771690302838033,0.006066712628800317,0.02942869274396013,26,24,71,58,4
4.617611015211735e-05,0.00023168077236347375,0.005427599419496742,0.030430994078909212,22,22,72,57,4
4.541610845086281e-05,0.0002232941837024459,0.005680126719979403,0.02794032280084006,28,18,70,60,4
4.732901252399874e-05,0.00022167762824139623,0.006235810678181012,0.025256452336402013,18,20,67,64,4
6.379917893860504e-05,0.0002942195962569963,0.006349799568726223,0.02924438693700414,22,24,65,65,4
6.286940452960069e-05,0.0002832583726547702,0.006442999742129549,0.027381422577032834,20,24,71,57,4
6.206455378143745e-05,0.0003017076676728091,0.006189413558659229,0.02870167930775516,22,16,75,65,4
5.657409771780894e-05,0.00026884241121321695,0.006215247781500819,0.029509089964730367,24,20,88,62,4
4.274521168213722e-05,0.00020077487295049132,0.005596769190421612,0.023547052200491286,36,22,83,76,4
4.522695964989742e-05,0.0001974150710829867,0.00551481237743098,0.02257705623286362,30,28,81,78,4
4.3775481044878844e-05,0.00020772463871587856,0.005601024558221166,0.021664751115263024,40,28,75,63,4
4.2965836607327075e-05,0.00017832277730640052,0.005364139812526715,0.01921498694437204,30,26,76,60,4
5.010286371559976e-05,0.00018307374730655031,0.005737782381311255,0.021491074618506585,16,32,79,62,4
5.477293567305329e-05,0.00017322335878709562,0.006076103464138125,0.019915357739998602,12,24,71,66,4
5.975799639786412e-05,0.00021099730768853848,0.0063966292691862115,0.023243426272517197,16,22,71,63,4
7.176358344025373e-05,0.00026143416687494865,0.0071124882689404135,0.02382214040225952,12,20,68,65,4
7.161711540982388e-05,0.00027155787239114545,0.006916819127374779,0.027540929490902148,16,16,68,58,4
6.659910178752633e-05,0.00027149795459436763,0.006564310911564838,0.0274787464064605,18,16,73,59,4
5.9451128623893245e-05,0.00023781917745674706,0.006483199994791023,0.025533545970540295,22,18,71,58,4
0.0013312697086148482,0.004263697302668303,0.21127836276028764,0.49256374166050765,34,30,74,52,0
0.0012737341667210741,0.0043800234269292075,0.22333271513339467,0.5338148678385103,40,28,75,53,0
0.0012880575653460443,0.004455449139730653,0.22060525557378713,0.5422024367953864,36,28,80,62,0
0.0012042218236541962,0.004120618267282236,0.20003507414303742,0.5321898371876758,34,30,80,62,0
0.0011762509433141833,0.004173570949662906,0.20039825765392472,0.5356619290045249,38,22,79,62,0
0.0012951202213738588,0.004228267244041181,0.18468667419731002,0.5137976354575191,30,30,71,64,0
0.0012156901223463025,0.0038473422650783695,0.18516915569331113,0.4916764103630417,36,34,66,58,0
0.0012989923204547338,0.004010731317727771,0.2035161428740356,0.5004262614420193,40,30,69,61,0
0.0011982236096438495,0.003911451826097485,0.1849197536957947,0.5169150213368482,36,32,70,60,0
0.0010922956436907275,0.0037582908067175184,0.18339112052439974,0.47841128712656666,36,28,70,67,0
0.0009855478858480852,0.003617768106898664,0.16985584736738596,0.47191168928153693,40,28,79,67,0
0.0009241380174799739,0.003493469267634495,0.15814166698590823,0.4444296245598404,42,26,78,70,0
0.0010001946563534454,0.0033018989945214445,0.1693561884285802,0.4611868282902079,38,26,77,72,0
0.001035373043683297,0.0033563548416753702,0.16432237338502106,0.48120670373817165,38,28,73,61,0
0.0010640153443891966,0.0032176586823742985,0.16161410048431804,0.47434553799677703,36,28,74,66,0
0.0010308847622820135,0.0030743031959670863,0.15986950352581972,0.45053330664576846,34,28,79,63,0
0.0009616916553607743,0.00309080461983015,0.15020223324431348,0.4299513912415087,30,36,79,67,0
0.0009814544219490446,0.0029915567042343816,0.16485715894873235,0.4145805669493969,32,32,81,67,0
0.0010119556552498064,0.003258628638285277,0.16987140935496967,0.42686716820140097,36,30,80,70,0
0.001033481674111128,0.004011555652196623,0.1725772627139901,0.5217461898804758,34,26,73,58,0
0.0010957936433687546,0.004020392892432764,0.17590367065643514,0.5087903455326028,34,26,70,53,0
0.0010627328992053838,0.004197717336638481,0.16476207409797125,0.5516514144492198,40,30,70,50,0
0.0010541086652553575,0.0038481585314211687,0.16037775543003796,0.5193195124464542,38,34,78,53,0
0.0009328690588406197,0.0034694476329873753,0.13802941923680878,0.4538954227263584,32,38,80,56,0
0.0020932125601942075,0.005440026702121373,0.2987917681301243,0.7053423096369008,34,26,68,67,1
0.0022798937474170617,0.005246033174926311,0.3225368138826171,0.6846685798817793,30,26,71,67,1
0.0023430668274767694,0.005206279977829353,0.3325165249684821,0.6590068967503322,28,28,70,61,1
0.002388680482974279,0.005204459170793147,0.324712297787549,0.6519114391141673,28,24,63,60,1
0.0023298519365481853,0.004510237185403202,0.3178186555840745,0.5741114525412795,28,26,70,57,1
0.0021000803765769357,0.004226898211163818,0.3047102848987067,0.544142358310564,30,28,65,61,1
0.00196168637838251,0.0039564215940700405,0.2834963235701396,0.4733135675189927,34,26,65,66,1
0.0019205809410539386,0.0036293013382791874,0.2717257178960597,0.4138560851661252,38,24,73,63,1
0.0018853675363310473,0.0033424067520985757,0.27095407918500913,0.40451913701407305,40,30,68,64,1
0.0018449410571345348,0.0034047268081413523,0.26374154403098854,0.41445804580101064,38,28,69,66,1
0.0018958827795803126,0.003561673831835275,0.25609895642152736,0.4355157638190443,36,26,65,61,1
0.0018615418889012534,0.003158892290912138,0.2686647330238438,0.45710419284767057,36,32,59,62,1
0.001802433241684733,0.003020901139226976,0.2719002730046032,0.4434799607869733,34,28,64,66,1
0.0016101680099101768,0.0030605163904456984,0.2484116340883834,0.4397779856920016,32,30,68,70,1
0.0015020463823755992,0.0030751497377839022,0.23168740689028688,0.43611372082245536,32,26,70,66,1
0.0015214629228710163,0.0031235880030323665,0.21727737329940675,0.42776557754687494,34,26,66,66,1
0.001676398663235403,0.003618294050130635,0.22582661710584537,0.4855300564428673,26,30,69,60,1
0.0017465699613988125,0.0036004807615383928,0.23537004809770146,0.49560514947482653,30,26,68,62,1
0.001618560021172043,0.0036538833745247486,0.2266460157738458,0.49397969256247776,34,34,71,68,1
0.0015766805129111719,0.004207606060692476,0.24961447476481247,0.5522894491706155,34,30,66,60,1
0.0013754362196997552,0.0043462731819817295,0.2313495813280506,0.5762060038763482,48,28,66,65,1
0.001437638449186981,0.004527739381914067,0.24082189794376832,0.5729876464336392,36,28,67,62,1
0.0017779272885942788,0.004866482916102683,0.2696471512544791,0.6455539569704125,34,24,64,60,1
0.0017848861623532583,0.004385821743228444,0.24366486405841095,0.5858430319114725,30,30,71,66,1
0.00420088590921754,0.0017025300663091438,0.6809189611047061,0.24015944262383196,40,34,90,84,2
0.004010796071164658,0.0015154208788252025,0.675527908686786,0.2225570167707964,40,34,85,80,2
0.004004165684398721,0.001503484600330406,0.6870890985605401,0.22236906359929673,42,28,84,81,2
0.004146728705674504,0.0018166440045274566,0.7165277323041384,0.24261561824557196,46,22,81,86,2
0.003955957620067851,0.001951726592648552,0.7313765582089753,0.26087739401905585,50,24,81,80,2
0.003907518594095341,0.002164915770254256,0.6941941489703811,0.26414402286639294,44,24,83,79,2
0.003568137139540234,0.0017994046343900694,0.6941742823606725,0.25139636409551064,42,28,87,82,2
0.003558267845886725,0.0015527113794328363,0.653557232291169,0.23220017955510694,44,28,88,86,2
0.0034188718771363787,0.001587594499946931,0.6265207458457143,0.23137855624028145,42,32,88,95,2
0.004073712969456412,0.0014808859239983192,0.7795553787687661,0.23630558530225532,42,30,86,92,2
0.004410162869227556,0.0016305502736992461,0.7819744018474719,0.24596226276470817,40,36,87,85,2
0.004169278620438507,0.0015361771608637127,0.8456260930746271,0.250964041452119,38,44,78,85,2
0.00428456306807999,0.0013427555403690166,0.8484890556583596,0.2354575175652863,36,40,81,84,2
0.003354586140305232,0.001230929245910286,0.7496145429275701,0.21933059442966088,48,38,90,81,2
0.003250189247046544,0.0011786373483607445,0.665197001846777,0.20175305041921673,34,40,89,82,2
0.0032577751594242838,0.001160966208318871,0.617549190008276,0.2097278668278121,38,34,90,83,2
0.0033624233236579327,0.0011951010823625797,0.5894981050330728,0.21687611575001667,38,40,87,79,2
0.0031701116051024224,0.0011537513884908896,0.5415490939107085,0.21632384120969336,42,40,86,75,2
0.0032123694301794165,0.0010913240455439743,0.6110625216828373,0.21257842638008292,46,40,90,79,2
0.0033275347936657248,0.0009733681216539387,0.6559429759697107,0.18249051390896484,44,40,80,81,2
0.003359830589277012,0.0008450507357772248,0.632316647159009,0.15385409695372884,38,42,86,78,2
0.003578108102543462,0.0008545642137535214,0.6203219331200167,0.15827912413040432,30,36,83,83,2
0.0031981360315428324,0.0007871127956621604,0.5879874579187446,0.1523807335364972,40,42,88,84,2
0.003268749110531412,0.0008084543335647305,0.5692769145397332,0.16027412234732127,40,48,90,84,2
0.0007247779629014475,0.004724927440588549,0.11249693964036231,0.7052831130820972,36,32,66,72,3
0.000715544808265584,0.004502382972355739,0.10913166538795145,0.7164809334204205,36,34,71,76,3
0.0006714030602392933,0.004312923259183674,0.11453015270935273,0.7092167150376214,38,34,77,77,3
0.0006714391756417423,0.004832521278327095,0.11678139411585818,0.7536947757382726,36,32,75,74,3
0.0006800784171031929,0.005288246434000561,0.12070950194109022,0.799697206597197,34,28,76,72,3
0.000686844239409412,0.005396622814676204,0.12254411783876512,0.8030008621848825,38,36,76,70,3
0.0007174832365810622,0.005453201327352556,0.1256777984622418,0.8184778477431207,34,32,75,73,3
0.0007030622850160809,0.0057698695562711745,0.11592146425407594,0.7729833597009312,32,28,80,69,3
0.0006844977909888461,0.005062206273893599,0.11424254031272726,0.7127411343552488,36,30,78,68,3
0.0007293736206355822,0.005279585536671345,0.11436586238939553,0.7253991780796476,34,28,80,74,3
0.0006959611095575738,0.005614477494795374,0.1045020237729071,0.7301357564395983,38,22,89,71,3
0.0005847305369521047,0.00513335630092007,0.09847877462137505,0.7256269382315741,40,28,90,76,3
0.0005541881633454091,0.005254784935247329,0.08636975812801162,0.7358690451970206,38,26,90,79,3
0.0004916046770969429,0.0051117385018354874,0.0769174707410832,0.6983023110792633,36,26,85,75,3
0.0004786228596456641,0.004978635899096477,0.07580504499427289,0.711259637482344,36,28,86,79,3
0.0005070021107077233,0.0046357525561606956,0.07439167092154729,0.6938984919388094,32,36,80,70,3
0.0004815982500923382,0.004540558998907032,0.07572261903081154,0.6743585334425636,38,28,86,65,3
0.00047813116749060485,0.004412752051735016,0.07943044630022111,0.6320331567910638,46,30,85,68,3
0.0005831932656467059,0.003722307732913266,0.08509287769707069,0.5509181460786324,28,30,83,78,3
0.0006176848300226628,0.0036362120367502155,0.08813363939726986,0.5098108657790258,30,28,86,77,3
0.0006356202137366797,0.003746943925361282,0.08822693270568749,0.49026949339369086,32,28,82,76,3
0.0006150437673568287,0.0036982562802599806,0.08363855438151103,0.4816307018397385,30,22,79,76,3
0.0004957069750422751,0.003958136403430455,0.0802809136029176,0.5137959831614569,42,20,76,72,3
0.0005120781457793842,0.004068756706434232,0.07991880380666558,0.5647245718397726,38,26,80,73,3
4.2030657900334196e-05,0.00015098450360252416,0.007035851458913392,0.02165149622429819,40,22,82,80,4
4.317429632600583e-05,0.0001390778819948444,0.006759689899574651,0.020284115394874236,36,22,82,81,4
4.443150162915206e-05,0.00016603006921278758,0.007255029427435257,0.02374756218103513,38,22,77,74,4
4.446279351954144e-05,0.00016047947537784963,0.007136429181597535,0.02306188789308904,34,30,75,72,4
4.303834416433611e-05,0.00017209188761958905,0.007295234175432935,0.02415936068189082,42,26,79,74,4
4.146543803664925e-05,0.00015522983287999774,0.007155246892227787,0.023368181496935047,49,28,85,76,4
4.495213405005722e-05,0.00015479103206980646,0.007266685807788919,0.024452613566771544,38,28,83,89,4
4.2470867014969244e-05,0.00018836887723034913,0.008226411285920759,0.02835099343687221,45,26,86,90,4
4.465165123333545e-05,0.00021372326263295559,0.007858677777998058,0.029573902682312456,42,22,91,89,4
4.5859109187495914e-05,0.00022034697557487125,0.008006440249121272,0.0311924730712108,41,22,87,82,4
7.193771072636924e-05,0.00031942833779751047,0.00899908677018431,0.03670530133632796,24,21,88,68,4
7.162444967466396e-05,0.0003658921020935262,0.007675668032971076,0.042015106603481955,24,18,84,66,4
0.0003337242941230672,0.0005875731653900273,0.024178388662666726,0.0543227778733085,6,16,69,58,4
0.00037349265340086744,0.0006283862020540051,0.028048551300996313,0.058244563418602825,6,18,63,56,4
0.0003706180421607792,0.0006126244597379099,0.030593259963775574,0.05568787929051267,10,18,53,57,4
0.00014511463222079786,0.00036771543297536553,0.021475980418305413,0.04195734733578523,24,16,81,57,4
0.00012361575916378141,0.0003566712416255543,0.018678779573371346,0.038318213961793496,20,22,84,58,4
9.45147170852287e-05,0.00032328626174142063,0.014666242605084584,0.03144066657137211,24,18,74,60,4
7.591074346795751e-05,0.00025868228291090357,0.010782355968983151,0.026651236684002832,20,20,71,62,4
4.8108247684025166e-05,0.0002632687470623049,0.007451133380605793,0.02422935964279425,35,20,79,55,4
4.0906567506412934e-05,0.00017111541428285762,0.006074609268231402,0.01865592890440005,30,20,76,57,4
3.481909050424766e-05,0.00020992918253143463,0.005414212323008003,0.022157149878424463,45,18,82,57,4
3.4144224209845186e-05,0.00018936191875722756,0.00519480604892707,0.021282166191056176,42,20,85,58,4
3.528586409226338e-05,0.00023616663866966043,0.0051117463421932,0.02404575056416971,33,14,86,60,4
