f1ch1,f1ch2,f2ch1,f2ch2,f3ch1,f3ch2,f4ch1,f4ch2,Category
0.0003198726452846321,0.0007059420416475997,0.025251151991168466,0.07172347658052555,19,27,42,41,0
0.0012250205231307384,0.001089657487627517,0.08375078928647803,0.10074010448016944,9,18,35,42,0
0.0031857759905302404,0.001432641336382351,0.21197135079428744,0.15658194635828301,7,22,48,47,0
0.005817957445004692,0.001889066633579862,0.3771522158780473,0.1923050134746257,10,22,46,52,0
0.007375922503525073,0.0024188368076029114,0.508615318291537,0.22564090530535078,14,28,41,50,0
0.007781361709329823,0.002481367081076453,0.6564899875913713,0.25397839178501114,22,24,49,58,0
0.008355077793787689,0.0028107366364588187,0.764849970051447,0.258223916612112,18,26,51,61,0
0.0073576828556984955,0.0026573846922404634,0.7726303184652641,0.2898360948257705,26,24,53,66,0
0.006607670170710015,0.002737548320695084,0.7658704030080605,0.30187110458507,24,28,60,67,0
0.005978481580227025,0.0025971082251629394,0.654968358539343,0.3059933922849063,22,28,60,70,0
0.004420161314890085,0.0024328806642958094,0.5601242169485037,0.2976107550056791,34,32,63,66,0
0.0041080795204196585,0.0023864984711362103,0.507342431029685,0.2868491441155906,26,26,63,63,0
0.0037303927650244773,0.0024306486595325307,0.5193429778622426,0.2911242420464015,38,26,61,63,0
0.003802369175810216,0.002267695587586174,0.5078447514577145,0.27833756968646434,34,20,61,66,0
0.003997611094705263,0.0019098963192546207,0.503495524070311,0.2710210468073636,30,28,64,69,0
0.0041023929513136605,0.0019017605755757363,0.5122011753352149,0.2868939820619028,34,28,70,68,0
0.0036597603761798197,0.0019587024865463988,0.45182703434005034,0.27840206386260974,30,28,68,66,0
0.003840790156649257,0.002237370496549945,0.46391813378993735,0.2919312869498695,30,26,66,65,0
0.003929939251257131,0.002197614723494409,0.4917134316747657,0.30680758458744767,26,28,58,63,0
0.0034791586657048697,0.002212952327623996,0.44803126344487176,0.29152035285806244,34,26,59,68,0
0.0036442403135990174,0.00202634627152315,0.4919763110631062,0.2733222011881454,32,28,63,75,0
0.0035175344663816426,0.002118785830767629,0.468054337821426,0.2735965165473365,28,26,64,72,0
0.003447711462575961,0.0020790472883198776,0.43936942975850163,0.27091790572547764,28,32,65,67,0
0.003383075173439463,0.0020728636254960927,0.4525173486675251,0.2666110527846838,26,34,61,64,0
0.003761671340612281,0.0020067960345480323,0.4576544474063264,0.27095347382548857,28,36,57,60,0
0.004019284516236198,0.0019535189121544214,0.463743043750008,0.25364179242811913,30,32,55,61,0
0.004033012714073194,0.0019412711499377014,0.48026718458260315,0.24779143888779062,26,34,58,67,0
0.003939226239617365,0.0018693157857820725,0.4753013679163416,0.24991844339276553,24,26,61,72,0
0.003814911921939771,0.0017218551331523975,0.49025499006173917,0.23555710198500457,32,30,65,75,0
0.003983361124393596,0.0016256656365783767,0.5096989875725577,0.23911822089282225,24,32,68,74,0
0.003370160966109836,0.001771610484340898,0.5009579565561604,0.2420088954639717,32,24,71,70,0
0.003959614939157023,0.0017875218768307931,0.574178432562436,0.2255678310605597,36,28,73,66,0
0.0036671652318048353,0.002035488718497628,0.5292207801834099,0.2503563833961445,34,20,70,64,0
0.0042861501476001256,0.0022504344151407026,0.5638761842306691,0.25835909132618917,26,26,61,60,0
0.004293911986078807,0.0022062144518157217,0.5863822343957392,0.2503659289374453,28,24,56,61,0
0.003912693110614242,0.0023323239899095396,0.5190619224173975,0.25613031660330726,30,28,59,61,0
0.003913717719034281,0.0022426002488520544,0.5172276007654684,0.23731619335807538,28,24,61,63,0
0.0037810107549065674,0.0022682984455748806,0.49030845512016297,0.24261435834033224,34,22,60,66,0
0.003564938726475984,0.002084545317450826,0.44128121489451855,0.23506812024954624,34,24,60,72,0
0.0030132960119153623,0.0017977689195824821,0.37127699821131965,0.20067223826229671,30,24,58,63,0
0.0026806813485466922,0.0018179436750430874,0.29695684994692967,0.18138664482016664,26,18,54,67,0
0.002767528160327179,0.0019649488068435063,0.27911462766123485,0.17762422807062458,26,16,53,67,0
0.002780963298409641,0.002104396223995121,0.2666610291796263,0.19034502229807207,18,18,63,51,0
0.0034744874468613856,0.002267938879898071,0.3659629871326633,0.2239813750046208,26,22,61,54,0
0.00446877732801505,0.002706504071303328,0.46904416873963306,0.24739743313301335,26,22,58,58,0
0.0045712438667354985,0.0027690722034233273,0.5026557583208335,0.28031021685289514,26,18,60,51,0
0.005015010362573414,0.0027549473126779094,0.5446867226377555,0.2915791329575025,20,24,56,59,0
0.004763488481348004,0.0027876130688516713,0.5346792752837842,0.31338193533400605,24,26,63,60,0
0.00018368914325150377,0.00040862439901636016,0.01158464190876205,0.026575051899372783,18,18,36,30,1
0.0001757815301727196,0.0004017991233294412,0.011517482180223153,0.02659736118810611,21,21,40,32,1
0.00018955967960229464,0.0004866772763467194,0.01319583961997633,0.03280702786216327,22,16,43,34,1
0.00046053499518652896,0.0007044332317900863,0.040597774707414505,0.06092173283688817,8,14,38,39,1
0.0007059469007311245,0.0009253285944781424,0.07513396740759401,0.09821205153321518,16,20,48,56,1
0.0010688138532723504,0.0013465948280352589,0.11700239896488428,0.16113405146914395,20,30,55,65,1
0.001343206079921917,0.001874625928120763,0.14898114045719088,0.2365295136898415,22,22,61,71,1
0.001531363792750614,0.0024035733119070653,0.1745570195931637,0.29488292008848677,28,24,68,70,1
0.0016435957119814478,0.002807357228635199,0.19207890523947366,0.3358581511244073,32,22,73,68,1
0.001487773507134018,0.002884572221317782,0.1881795058921693,0.3528153649348495,30,32,75,74,1
0.001658661444650893,0.0028102718091075622,0.20898081143031413,0.35040264100127594,32,24,70,77,1
0.0015427342322890602,0.0027088609582343244,0.2022149002277887,0.3551812345386635,36,24,71,82,1
0.0015596173151317919,0.0026657889839139886,0.19000984908446522,0.35017269344699337,32,24,66,83,1
0.001543382055012892,0.0027244840447304013,0.2095248308576964,0.33039134490250366,30,24,58,76,1
0.001482871923351248,0.002371555911733549,0.19512090758689368,0.3021253697951633,30,26,66,75,1
0.0013888989629646708,0.0021677369889980813,0.19102457875093762,0.2606726960488938,26,28,62,69,1
0.0012598980228593305,0.0019197643306991222,0.18682362743133354,0.26213092292938417,30,26,67,75,1
0.001152471191385792,0.0021076390882070924,0.17062476654608003,0.2865028036575924,32,32,68,67,1
0.001140314995557837,0.0021481390454968145,0.15775667678401908,0.2914382730063522,30,34,75,74,1
0.0011247679269336946,0.0023379831110952654,0.15215311062014042,0.3106579909888628,34,34,69,76,1
0.0011474565415154105,0.0022148945599628294,0.1588180533099286,0.3021769593024651,34,30,66,72,1
0.0012070655355183894,0.0021877939044717977,0.1571932692674562,0.2990771434086772,28,32,66,69,1
0.0012673059188166092,0.0020090023770441045,0.17012269911428096,0.2787632008852883,28,30,68,65,1
0.001219928222292631,0.0019893060370780257,0.16541263074696652,0.26114853418967304,28,28,71,71,1
0.0010904433283858831,0.0019008449197595513,0.1642170868771606,0.24910347405132935,32,30,67,73,1
0.001125118915285876,0.001595146328860381,0.1634915619322665,0.21672981828005053,34,26,67,77,1
0.0010575755831053566,0.001787465022154689,0.14971158946700244,0.22827204693561132,26,26,67,77,1
0.0009855555123205178,0.0015893575158279366,0.14538125413434247,0.2112832623777418,30,24,67,84,1
0.0009678054771089045,0.0018839300153164268,0.13187867019716293,0.23250914196205297,32,26,72,73,1
0.0009978796935684923,0.0018168158454530464,0.1287549065816046,0.22953202152359617,24,30,72,75,1
0.0010825279393078925,0.0019408752075692282,0.13131826374807434,0.2192563769374685,26,30,72,78,1
0.0012453626402831035,0.0019089918200565084,0.14553570358689777,0.23099006277449177,22,28,59,70,1
0.001330051441911132,0.0017460716082082473,0.15104053487343463,0.19573293152867227,24,26,57,72,1
0.001329642481227438,0.0019307152749942422,0.13963684669075624,0.20950312913367022,26,20,61,66,1
0.001338923072121995,0.0019488163178984707,0.1406766338263879,0.2269999825090531,22,22,57,70,1
0.0012920329791594853,0.0019365162401959745,0.12779017751347094,0.21586961132140609,30,20,67,70,1
0.0011270730359881902,0.00186863846605252,0.11897227353976991,0.23940185722463903,28,28,69,71,1
0.001146054380366998,0.0017488126561750871,0.13016235927463407,0.22768613199749543,30,28,74,67,1
0.00107453356827309,0.002144844590158926,0.12606355204958208,0.23030939191387392,30,28,74,64,1
0.0013199883350616768,0.0034424722806017842,0.12563275733636423,0.2708135155575213,18,14,72,72,1
0.00116495981080929,0.003204573075808057,0.10072096342505438,0.21803836468340942,12,12,52,76,1
0.0007550336171371458,0.0026085042522613695,0.06205455903286389,0.1676758846896626,10,6,60,82,1
0.00019407785943612501,0.0006206627020178688,0.012700260211487789,0.04411309452491598,18,22,42,45,1
0.0002137675588463347,0.0007346648208258303,0.014417371840526877,0.05187585071943633,20,13,48,46,1
0.0002580953670412791,0.0008963646592074324,0.01964403865580327,0.06509942623218132,18,14,52,43,1
0.00047883874344357725,0.0009750988317251065,0.047657440123710544,0.0810707707145762,17,20,60,54,1
0.0006609503614830249,0.00107876824355485,0.08071392076975903,0.10583241089396901,32,26,66,60,1
0.0009305064647635789,0.0015034335652027958,0.12029551193277747,0.16244997368936664,36,26,66,65,1
0.00023673244094839723,0.00048146528736462617,0.015056856143704314,0.03169740289829425,18,20,39,35,2
0.0006873366629610572,0.0007797958419205796,0.06760799635445251,0.045933060339757144,10,9,39,41,2
0.0017496041592871669,0.0009846359237654677,0.15438160492925318,0.07183563514359523,12,12,50,42,2
0.0031977622928559043,0.0011782848057184543,0.32452274448253055,0.09520724380675512,18,20,54,49,2
0.003845379002190774,0.0012721222229951058,0.40378782495250704,0.10593432399932996,20,16,54,52,2
0.004928375846681029,0.0013828295520813493,0.5740269686618024,0.1294553114920807,24,16,49,55,2
0.005586556524382915,0.0011641431263358735,0.7273872536870173,0.1306940777756715,26,18,60,64,2
0.0062364809635231345,0.0013988414498088907,0.886351089320292,0.16134995064145125,32,23,61,64,2
0.007677816397498787,0.0015038824808099793,1.130746422988344,0.19025119965883086,34,24,63,72,2
0.00828921795376752,0.0015945928572913735,1.1689294788511413,0.19902664034864415,38,20,64,76,2
0.009216185387661568,0.001781275731331213,1.2574084948500763,0.21005509875386078,38,18,65,68,2
0.009813450255818998,0.0013450197822132408,1.226675922796508,0.17875338471335894,36,26,61,68,2
0.009249610395836265,0.001222654763690416,1.1331498563085551,0.16037884960069174,32,26,56,74,2
0.008698941422502734,0.0011394880906420055,1.1309945804502377,0.1528545789045477,28,32,55,74,2
0.007241874689803386,0.0010205849126249831,0.9887636565843417,0.14358982335578907,32,28,57,76,2
0.006528282995310295,0.0010912261464380104,0.8285456296223698,0.14397109618717083,28,30,59,71,2
0.005485315440333931,0.001012089211369532,0.7765972240419259,0.1413929907518398,34,24,64,75,2
0.005079033082401861,0.0009614105705698691,0.7072171230992531,0.13362968542178036,40,34,74,80,2
0.005097799553283044,0.0009513500941972075,0.7480711242320339,0.12883872162444615,36,34,68,77,2
0.005146459906354804,0.0010492807159569618,0.7384436774747056,0.1385933808520948,38,28,61,77,2
0.0053060339617000685,0.0009604019183421853,0.7255477043291622,0.14427013761717386,36,34,60,77,2
0.005218824700298628,0.0010709870308811206,0.7003110623824887,0.15089815857056296,36,32,63,75,2
0.004814587392570566,0.0011951217159786771,0.6780511658411075,0.1585353651011267,34,30,64,71,2
0.005005465213959142,0.0011077019639513944,0.7321669167659747,0.15244453650814435,32,36,68,75,2
0.005216257036235231,0.0010907144222379235,0.7484074365709451,0.14829880362268144,34,34,68,73,2
0.005194395819015484,0.0011017233774031883,0.7243634870541578,0.14246885073340562,34,26,66,73,2
0.005284405964511093,0.0010184627204244078,0.696331032976684,0.13349124425118286,34,26,64,76,2
0.005137656751035335,0.001131599785914261,0.6944334576320196,0.14207688708962726,34,28,63,76,2
0.005029447305563019,0.0010106011110029842,0.6968962586482822,0.13423513217765853,30,30,68,79,2
0.004749488559771957,0.0008979014002016384,0.692081442249715,0.12812848237173385,32,36,74,80,2
0.005353212392582852,0.0008706680149071639,0.7086159765489685,0.12467792783311228,26,30,64,75,2
0.005174291519127807,0.0008354225653634219,0.7128318351511675,0.11815622861314962,22,30,69,74,2
0.0049286001367435965,0.0008553726617224873,0.7111053227596953,0.1146428136093012,30,30,67,75,2
0.005550808096014689,0.0009726112778491423,0.8096363595471726,0.12308641067419601,26,32,63,73,2
0.004839503430114573,0.0010312372883616958,0.7540461410161999,0.12853026541743282,32,34,65,70,2
0.004737436963400621,0.0010346144653648132,0.7074721442256717,0.1259019105027884,38,28,63,70,2
0.004677860853599459,0.0010568415130981488,0.6565621017976702,0.12649076218035116,32,32,65,67,2
0.004041948235968073,0.0008712527579637102,0.5640228898728759,0.11932050268859284,36,34,70,70,2
0.003845625358426123,0.0008952477758044964,0.568247350676878,0.11668033038099086,34,28,70,72,2
0.003260546425628189,0.0009138402075106824,0.4345165352134381,0.1025723227447544,24,28,92,60,2
0.0021351066419647434,0.0007867800878450901,0.30713279488616807,0.08274531810092076,20,28,72,43,2
0.0011965007492963635,0.0006591622174334848,0.16040741295482158,0.05563334930828419,10,22,82,41,2
0.0002712680441461226,0.0004294449280868276,0.0280497276937731,0.03266296917217997,18,20,40,39,2
0.0013892678875714376,0.0006134824918744013,0.14505555778977394,0.05395189122125061,14,17,41,55,2
0.0028658035738252153,0.0008045878331795118,0.32982000139553386,0.0841160583364261,14,24,50,71,2
0.005136783211476309,0.0009704837014600068,0.6026818639195967,0.1193146112687462,22,34,55,74,2
0.007342149901025021,0.0012819993974966177,0.8644697207258951,0.15565627067787702,26,30,56,73,2
0.00853963684730393,0.0013118036880397962,0.9481789002059661,0.18079157448018926,30,36,53,74,2
0.0002159807022872674,0.0005207403012326491,0.015137209906851759,0.04329807169497385,16,20,30,32,3
0.00024109771039642808,0.000680126772114335,0.021286703148978854,0.06553561149354638,19,20,40,47,3
0.0002908918004932651,0.0011750873529878358,0.03108386145353082,0.12811375757965374,22,24,49,59,3
0.0004827147738077839,0.0016600609719006247,0.045945969359454754,0.18865917830902906,19,28,60,73,3
0.0005513177595305465,0.0024740386500034105,0.057545942765626516,0.3056673912339973,16,24,62,82,3
0.0006920178936191866,0.003078370693540085,0.07332895927192952,0.40795126352476796,14,20,62,77,3
0.0008367016077422433,0.00359527106697977,0.09860913684620466,0.5691857499631494,20,30,62,77,3
0.0008744151008338971,0.003915978181461271,0.11921794275993036,0.6976659759460895,26,34,64,74,3
0.0009645677432579766,0.004000377207200422,0.1415375147992761,0.7554191308572746,32,42,68,76,3
0.0010367352445445307,0.004374864285965943,0.1628892509940641,0.8371351956765819,38,46,71,77,3
0.0010645983662143622,0.004404229549306488,0.16625302844109616,0.8074145683557852,36,44,69,73,3
0.0010288672806120578,0.0041910858840422975,0.1591027197919898,0.7438956813381331,38,38,76,70,3
0.0010714774352745251,0.004165409648551096,0.156913695239757,0.7108181946377395,34,38,68,68,3
0.0011096780227735827,0.0039740272309159415,0.14378084986312123,0.6381151632614629,34,34,64,65,3
0.0010469356605182754,0.0036463071151722048,0.13843110468512496,0.580858186692868,32,34,61,68,3
0.0010007846797978562,0.003693800624352166,0.13490793482535832,0.5982786335241708,32,38,67,70,3
0.0008766634193153797,0.0035949538736185067,0.12337628526892389,0.593819404161077,32,36,71,69,3
0.0008313238334071884,0.00340162153538324,0.12310480404447538,0.5743314113018808,32,38,75,73,3
0.0008173016888760548,0.0034275217259238395,0.1152852518557642,0.5404271433346246,34,38,76,73,3
0.0008346796724636184,0.0032661466972768423,0.11507470647919164,0.5075496722006151,32,36,69,69,3
0.0008898539075624967,0.0033574045087682775,0.1189108093962438,0.47313317830080337,36,40,67,70,3
0.0009085273441588326,0.003459767182426528,0.12002952749557098,0.4970014303610703,28,30,62,73,3
0.0008762870763030168,0.003273104219687121,0.1208900075906277,0.4909381967912743,30,34,70,78,3
0.0009135298214927916,0.0034400586033809426,0.12976136994335533,0.5161621193001832,22,28,71,73,3
0.0008785674932875469,0.0033231200089601683,0.12458186531060839,0.5258805333275732,24,38,75,76,3
0.0008312981051906613,0.003163088250894659,0.11758575339011211,0.5184138126835431,28,38,70,76,3
0.0008439105439639323,0.003323877530108715,0.11579867512893516,0.5385903995677214,30,38,68,69,3
0.0007750285008607867,0.0029668883363323296,0.11291213065192553,0.5250627553397824,28,36,66,73,3
0.0007592531286961476,0.00310438444832822,0.11565935534561193,0.5331983808279799,38,34,69,66,3
0.0007883515598974254,0.0030557902196672376,0.11748638429130472,0.5264082676643458,38,38,68,72,3
0.0008402317414398043,0.0033171588751894996,0.12276616586642669,0.5665509938154407,36,38,73,76,3
0.0009246009931078714,0.0035220675803540324,0.1289881567251433,0.6000851948460253,30,38,76,78,3
0.0010017787675445978,0.003691170066814171,0.13639354630112302,0.6336716285927703,32,38,78,70,3
0.0010480952817657394,0.0038943619838693283,0.13813484377145188,0.6418424292759736,28,38,80,71,3
0.0009536905026093388,0.003414064425828005,0.13317173137969762,0.5623110305594916,30,38,73,73,3
0.000901720247092033,0.003391430216928682,0.12319573508754746,0.5504292555742292,30,38,71,69,3
0.0007902012538307668,0.003248578662016186,0.11614643188403141,0.5417259023157209,30,38,69,73,3
0.0007923548429622379,0.003432132229141145,0.104534407325044,0.5237030868302667,28,38,67,75,3
0.0008037582062698653,0.003461181392095124,0.10762400681245696,0.5653509380275564,32,42,67,64,3
0.0007023877521503428,0.0030470253742559427,0.09187123305738705,0.45256674031223476,34,42,64,64,3
0.0006432224809912064,0.0029773448163531984,0.07840999618010411,0.38625721579400946,30,30,62,56,3
0.0006684766888685993,0.0030293718204358177,0.08129638529294216,0.39518967466991417,30,30,56,60,3
0.0007443989455440194,0.003047680937474363,0.09239966703214277,0.40007318536770176,26,28,59,62,3
0.0009271278061161963,0.0038137181862735008,0.12028776337446374,0.5531196130417982,30,32,61,66,3
0.0010187357317218953,0.00438325671109703,0.14071163418685761,0.6474776875460803,32,32,66,67,3
0.0010347682505411693,0.004156526055752929,0.1461590095526133,0.6890285212354622,32,36,71,70,3
0.0010817804206913438,0.004700691785094869,0.14492176711198798,0.7539327851486873,30,36,65,69,3
0.0011241957756824774,0.004610788306068372,0.14533994137426454,0.7403422373599933,30,36,64,70,3
0.000215457366843854,0.0005356229247623149,0.01594186594297194,0.04515860932726276,22,14,52,57,4
0.00023214667819417258,0.0005828281428340716,0.016342221016586757,0.04676854623220385,14,13,54,59,4
0.00021755403188752602,0.0005492245353008597,0.015316773562921089,0.04729869474150681,20,16,54,53,4
0.00021806676806675543,0.0006243610096078436,0.01449906950778312,0.046952901335321526,16,19,54,49,4
0.00021015897615154228,0.0005465943257227097,0.01438109320821724,0.042651289031390434,18,16,44,54,4
0.0002071141976426055,0.0005555295570290142,0.013552923699726662,0.03958200751203802,14,18,38,60,4
0.00021305916307545427,0.000605059059800072,0.013478374538223963,0.040845004833504964,16,12,39,54,4
0.00021003724979815308,0.0006051424346180519,0.01345169338782251,0.03959105470117124,18,20,42,46,4
0.00021136025465498813,0.0006416596612811714,0.013554630616567817,0.04139761412604973,20,16,46,52,4
0.00021112896273353394,0.0006933380013928854,0.012915003459025319,0.041320413349661717,20,14,52,52,4
0.00019539371334580753,0.0005617398845614184,0.012629949638250164,0.03811621857568577,18,12,44,57,4
0.00019136781395298147,0.0005399961668535637,0.012337964361504533,0.03814838737862423,20,18,40,58,4
0.00018506181924861232,0.0005503070225954515,0.012268710949914169,0.03845043386686791,16,14,48,51,4
0.00018622231713872389,0.0005355299319417333,0.012219144321923996,0.03779182700761932,18,13,44,56,4
0.00018542147017473745,0.0004901114494807336,0.012135159382259354,0.036094831911572804,18,14,42,50,4
0.00019023742554597837,0.0006111666776983965,0.012203413081393227,0.03618909748558672,21,16,42,47,4
0.0001819424010284042,0.0005642969039531152,0.012410933147568937,0.035701140738412705,14,18,40,47,4
0.0001786914586632451,0.0005457274092416364,0.011763355583702468,0.03425118629106593,17,22,38,50,4
0.0001634226691292764,0.00046758717809642947,0.01142584253946551,0.035310260509167066,20,18,38,48,4
0.00018142262961265095,0.0004969364537394524,0.011413466835131296,0.03410056639697228,19,17,39,55,4
0.0001722696794010242,0.0004271800386410573,0.011691912347622301,0.03282163748676247,18,16,38,54,4
0.00017070247449458176,0.00039758225455309264,0.011702227542355082,0.030692102704615486,21,19,44,52,4
0.00016858047805588843,0.0004064110100862561,0.011942755153331926,0.02971039114533184,18,18,42,47,4
0.00016356354348135243,0.00038726315571130864,0.011771431696992546,0.029262727307105423,22,18,42,44,4
0.0001644416241509937,0.00040909036452471193,0.011513005201975223,0.02968624189294565,18,12,34,40,4
0.00016355455109183747,0.00041449003830791164,0.011343399998449473,0.030961446713840803,20,18,34,39,4
0.0001678195864708344,0.00044876487573373665,0.011433357527702099,0.0315897466498274,16,14,34,48,4
0.0002907008430320968,0.0006991192811555819,0.019313870977812883,0.046159954212795826,20,18,27,29,4
0.00037597139867178846,0.0010086417836776232,0.024822925163773234,0.06338752945173107,20,16,24,28,4
0.0003990160026015455,0.001075411832263287,0.031157915594478957,0.07652895203854584,20,16,30,30,4
0.0003925878875505267,0.0010282545168114321,0.03030686487247197,0.08021544392752497,18,20,31,33,4
0.0003335738178359207,0.0009205456414648216,0.025872910232922614,0.07362731252424723,16,18,41,39,4
0.00023571371245820197,0.0006343731820690611,0.019481814331128177,0.05918822593839881,27,21,48,50,4
0.00021882515653786922,0.0005879130862468569,0.013446378877677889,0.04960001189755572,18,16,42,48,4
0.0002097381037388026,0.0005479912590882627,0.012892914014220961,0.04481482779205474,19,17,34,51,4
0.00021015320181021262,0.000544697839045171,0.01320465116964069,0.04582964903614834,18,14,32,52,4
0.00022038123096898896,0.0005686732265077561,0.013018903519261838,0.041188926017588716,15,15,36,49,4
0.0002220247877890564,0.0006132713063801855,0.013681064382069624,0.04914470471613921,20,22,42,43,4
0.00022083125204656198,0.0005777721668556419,0.013468845474877093,0.046400501968406775,16,25,36,52,4
0.0002222557812013317,0.000609512988100665,0.013296896226878081,0.04393795307798559,20,18,38,52,4
0.00022534759024892993,0.0006126965598522389,0.013174382151513873,0.04368967747379647,16,16,38,57,4
0.00021418635088731985,0.000574276688001045,0.01277126974018674,0.040329262872854044,18,18,32,54,4
0.00021220951358903836,0.0005808738618107622,0.012532959346233552,0.04126828676636309,19,15,31,44,4
0.00021288812793164455,0.0005534571277205468,0.012077589420690671,0.042179874708263364,18,18,32,53,4
0.00021266847431992186,0.0005578976965200567,0.012238259397313633,0.04599077487571017,16,19,44,56,4
0.00021535967249519227,0.000577104531287989,0.012527964125840944,0.04563093181849221,16,20,43,54,4
0.00021234991772300777,0.0005450906855702701,0.012322211073693197,0.04776900545585377,16,17,45,61,4
0.00022225674138455536,0.0005896328311805446,0.013036436355344327,0.04656137109570994,18,16,37,59,4
0.0032601976799666184,0.0021798710271254086,0.4337011142208892,0.24741676634494414,24,22,54,63,0
0.0027775683182701696,0.0026780406427899988,0.3970630709883978,0.3080870421126528,20,20,68,63,0
0.002747205876681095,0.002530703508816306,0.3538915623361857,0.3045337750830576,28,22,68,65,0
0.0031172409772011883,0.0022753043754259843,0.36651674336587226,0.2949341949568063,26,22,62,71,0
0.0028545625325802093,0.0022959998207071164,0.33239000484808373,0.2868085274722353,26,22,64,75,0
0.0029910577175447884,0.0018839196387726396,0.33037305031682035,0.21678398305609417,18,26,60,69,0
0.002843984872399471,0.0019884745017774456,0.32128600597687584,0.21443210810261515,24,24,56,64,0
0.002506206553282808,0.0015987752263684893,0.31025351132148477,0.19335492163418222,28,26,68,64,0
0.00248301354867681,0.0016929065741336292,0.28218426086950504,0.20213081399511507,24,22,61,58,0
0.001912958822196707,0.0015829875060483479,0.23071448629145447,0.1772486134746388,28,22,59,54,0
0.0012753485344696907,0.001513214616396205,0.16041084135703168,0.15573829559180924,20,22,55,62,0
0.001149141169133078,0.001379650980698107,0.130651922611346,0.14152944296700293,20,16,53,61,0
0.001279101133283429,0.0012611644867447655,0.12822082207175903,0.12509562200710192,14,20,49,55,0
0.0018876933668457814,0.0015350853699676054,0.21863954140756234,0.173130057095078,20,18,54,67,0
0.0033835321409552,0.0017288138617417073,0.36373156268595935,0.18391271315304,24,22,53,66,0
0.003464808436530193,0.0023882805905245347,0.38400839829445854,0.21866079428244567,24,20,61,66,0
0.0038628824010178576,0.002605437074177749,0.4156138752479146,0.24736979543309734,22,22,63,70,0
0.004041861833023163,0.00259235649929746,0.4375704586733099,0.27501424754021453,22,22,63,64,0
0.0038478472450539387,0.0028564823546478866,0.4170541032816235,0.2959632819136812,22,18,64,61,0
0.004233346158094591,0.002738323084093765,0.4488730526986872,0.30834294246219623,22,24,56,61,0
0.00415523943449151,0.002321566847360356,0.48323782779182417,0.28634464929532977,22,20,57,59,0
0.0037431700607501095,0.0024584259009815253,0.4344856883998228,0.2653688818630778,20,20,56,56,0
0.0037935753160785986,0.0021318094234026638,0.43793299920669027,0.26269066688170817,22,26,54,59,0
0.004044479612895846,0.0022697445042186137,0.4691459466846454,0.2414527468008882,22,22,56,62,0
0.0034815061807589804,0.0020574073895899218,0.4209260296384413,0.24221621223756898,30,26,59,67,0
0.0036330227603841147,0.0020924114236204687,0.43421165559689706,0.24684685013121493,24,26,58,70,0
0.003329923069866459,0.0020159581835517454,0.3936016367225309,0.2335805001677735,26,26,60,69,0
0.0030086673813162768,0.001949343476852925,0.32657866050050843,0.25263601341594794,32,24,62,62,0
0.0029321167008248715,0.002005865262466733,0.34819154236182037,0.2626613701446245,30,26,61,56,0
0.0026026401572966716,0.002023240334302095,0.33785322565430687,0.25894571136557487,32,22,59,58,0
0.0025381937186120984,0.0020146355330081162,0.34266158289866483,0.25171533432746046,30,24,58,58,0
0.002949418177190317,0.002006988714347302,0.38245657024541857,0.24045072420603186,32,28,57,63,0
0.0028620811443350954,0.0023806541214379216,0.3514494639927217,0.2634152316592547,26,31,68,62,0
0.0026852350205674664,0.0023097233748960865,0.3500275011151712,0.26599919432177466,32,28,68,60,0
0.0026459857158230606,0.002261112908414194,0.32379386208750266,0.2692634145036461,26,30,66,64,0
0.002609308014968737,0.0023687348962883156,0.30295003363656364,0.2756458611640239,26,20,67,66,0
0.0027063119806042114,0.002183279760461175,0.29987893045478703,0.2640424907459853,22,30,69,64,0
0.002417512921776193,0.001940014838166921,0.2718737066959029,0.24739306397559938,22,24,69,70,0
0.00298926582754948,0.0021930311594140065,0.3330536880151422,0.2629520965268587,26,26,64,70,0
0.0027356340600018093,0.0021865408047700703,0.3169592717297042,0.2541796888464357,18,24,71,70,0
0.0028423842502703924,0.002085269896092198,0.33222861212671956,0.2502522473073418,20,26,64,62,0
0.0028867901707656483,0.0020605657515330826,0.33187163390322894,0.24500390507848568,22,30,61,59,0
0.0025378447126210685,0.002044848512575372,0.2918535133697093,0.245320361004322,26,26,60,58,0
0.002700537133164568,0.0020259172404871978,0.3110387233361407,0.24290769779754048,26,26,64,58,0
0.0024425757194094463,0.001860147066709567,0.3021004087620199,0.2352687064685223,26,24,66,67,0
0.002442564400495446,0.0021140254294594275,0.32213628994243476,0.2558936466098096,28,28,69,62,0
0.0025964860692498054,0.001889172441735338,0.3205302638668682,0.22212622721979108,26,28,66,68,0
0.0025101235124400955,0.0019656098948176034,0.3067528940518257,0.23579909878874084,22,26,60,66,0
0.0025843988616177415,0.0019959460855945754,0.30553624505482024,0.22088726092605956,24,24,56,63,0
0.0012639917720014332,0.001433486965454221,0.15273345167058278,0.2008533776248023,28,34,54,82,1
0.0012253286293828678,0.001502923451784133,0.1477611730380267,0.203672988515315,26,38,57,80,1
0.0010874087220775085,0.0016337309260257829,0.13370172720157678,0.1938237018619094,28,34,64,90,1
0.001080302354592147,0.0018022226237235366,0.1368497040756667,0.20209563584415183,26,26,67,78,1
0.0009955492876584542,0.001969325706779693,0.1369340468478964,0.2192693362939802,30,32,70,76,1
0.0011502103430612407,0.0020269435969723078,0.12934587781466095,0.22346478212814105,22,30,64,67,1
0.0010885729264265127,0.0019035522650763597,0.136732554995227,0.2113003502628803,26,30,63,75,1
0.0010811178074433356,0.0018268361728937168,0.133820558277753,0.22429753984003992,30,32,70,74,1
0.001141632412061289,0.0018912161385205959,0.13130590691097144,0.20152255938746555,30,30,70,78,1
0.0009678134304252344,0.001623614641155643,0.10933100726526354,0.1708578729674105,30,24,60,71,1
0.0007934412364278028,0.0014763494044287256,0.07885590702866938,0.14331060552628172,18,22,53,57,1
0.0004133173798892281,0.0010303938559793994,0.04322192047609907,0.08639248166705818,13,14,59,51,1
0.00020760804225467556,0.0005236658546149323,0.013889240770958967,0.042442586023309095,18,16,46,53,1
0.0002557951053137277,0.0007474883440458206,0.018857759645690877,0.05733639531055056,14,23,47,47,1
0.0005410021227901684,0.0009225665585495494,0.05368885356922721,0.08304295534778881,8,18,47,53,1
0.0008382546685994179,0.001461117841650218,0.08984728929963372,0.13878684105335887,14,21,62,58,1
0.0009408270932515589,0.001869715633335526,0.11523661576274105,0.189827277979021,20,20,66,63,1
0.0012372902569151474,0.002316040578249571,0.16236752417163314,0.2494090230762031,34,24,64,69,1
0.0013213437494094685,0.00272832369468661,0.16413666005353716,0.30523370892405716,28,30,63,65,1
0.0013613301012967017,0.00259838100937673,0.17191064687165206,0.3271805926534577,28,32,61,71,1
0.001603704997655907,0.0030178328618966003,0.19949618062191396,0.3529408070703527,30,32,60,74,1
0.001663491550026312,0.002627376672858287,0.19847444554648516,0.3411524594754235,30,32,62,79,1
0.0016991784160090542,0.002785345327300499,0.20167384008291603,0.3498705669504518,28,36,61,79,1
0.001647590513360887,0.0027493778721522015,0.20505849457230552,0.34525211958538304,28,34,62,79,1
0.0014948626437328585,0.002699818651650254,0.19454297614979904,0.3590982448274295,30,26,67,74,1
0.0014040391829396779,0.002830485640734886,0.18866116391132773,0.3593042357514102,32,28,73,69,1
0.0014684724223817001,0.0025455691629989573,0.19251875422273676,0.32571450639512944,40,22,69,71,1
0.0016706312459344994,0.0023338761878957805,0.22035544113029423,0.31835173473286016,40,34,65,74,1
0.0015592765389554379,0.002633833654982839,0.20808152577927497,0.29240750598029436,34,18,62,68,1
0.0016300301216899862,0.0027793747039714643,0.20878803579958763,0.30525848196769045,36,24,70,67,1
0.001651067713959711,0.00297489294129912,0.2141146516887141,0.32290858217498436,32,24,70,60,1
0.0014468111516348669,0.0029207379108652245,0.2017676464230508,0.3135417630772619,36,24,78,63,1
0.0014055384108939558,0.0025650711518211944,0.20234509996048197,0.30182859161046,34,22,74,70,1
0.00165706110689083,0.0021647851944281774,0.2133517870437904,0.27587089670408105,32,22,71,73,1
0.0016242478764889373,0.0021683800195081075,0.20046838852482388,0.29111122942494505,38,24,70,76,1
0.0013758083485204359,0.0020442878366332866,0.16638345802802013,0.2854303720759281,32,28,70,76,1
0.0017875035982804965,0.002052093941168243,0.19080740424548537,0.2832423002002323,16,26,67,80,1
0.0015314008984896052,0.002369804779154003,0.16630664725130231,0.29108962691890616,20,26,70,75,1
0.0016702725447467614,0.0023343099379503148,0.17546248721716334,0.2597444734353925,22,28,64,75,1
0.0016528245591645539,0.002458484796979247,0.1922274824187809,0.27608553274720726,30,24,66,70,1
0.0017541325242558185,0.002528187080855352,0.19086564034432563,0.27686034601698883,28,22,58,72,1
0.0017731472756692924,0.002321650033398871,0.1913849247247053,0.2938044647406592,28,20,63,65,1
0.0016596963964839162,0.002291924674160788,0.183633465798425,0.29564302982324814,20,30,71,69,1
0.0016452881951294512,0.002265528175790406,0.18377240598959976,0.30082284977612034,22,32,70,59,1
0.0014729669600900962,0.002180273731616968,0.17814175446489577,0.2942428893590597,24,32,70,60,1
0.0016623657997064509,0.00204361257758945,0.19464380374242868,0.2782439842849102,22,30,58,61,1
0.0015922222589311833,0.0020248992271369374,0.1807123632236433,0.2735622403567925,28,26,67,70,1
0.0016575577395100316,0.002052256724470428,0.17533925141027476,0.2576059844192635,20,24,60,70,1
0.0018224089434036286,0.0021978152967056523,0.17404133238319897,0.2636158749501528,17,30,60,70,1
0.003428525563794988,0.000994334408157674,0.4005328210943666,0.11728880600095012,24,26,61,73,2
0.0028959947971661827,0.000919506616935213,0.3694161943542173,0.11181333790357158,28,28,67,80,2
0.0027235667823319086,0.0009135421257426714,0.3484931818742006,0.1023505961945889,24,32,73,76,2
0.0027325085655392017,0.0008766708003894543,0.38349514917103933,0.09836900247345651,36,32,72,67,2
0.002585131868004227,0.0007952907253134963,0.36422437723045736,0.08891494351559338,30,26,72,65,2
0.0032693289552657282,0.0008001892876263388,0.4093407578240261,0.09201188258035856,30,20,57,69,2
0.0029345081977519604,0.0006636002622660822,0.4126028409362194,0.0935723192485326,30,26,60,70,2
0.002891183668714084,0.0006223829083502761,0.39177207382309287,0.0937284566059274,26,33,61,78,2
0.0027711411571483147,0.0007419399236640375,0.38409408237383624,0.1029751552702632,28,28,60,77,2
0.00247948644569315,0.000898286472840647,0.33517804862800155,0.10464922629229778,30,28,61,75,2
0.0032641736663469685,0.0010846052103260326,0.38323115011457176,0.11263758759818485,25,28,58,78,2
0.004572150805351809,0.0012750190831879386,0.4495913015327579,0.12008540175326692,18,22,62,70,2
0.006129690802015232,0.0011758793041996693,0.6493853220257967,0.12968141978191441,22,26,62,62,2
0.006569984175561887,0.001155565379824091,0.7243598330446758,0.1307724891550712,20,26,61,65,2
0.007707322671411292,0.0011356829850253116,0.8462821633336134,0.1372330203694662,30,24,57,74,2
0.007210493171819616,0.0011086092328121862,0.8897388777362627,0.1440826024076401,24,28,54,73,2
0.0065344170347185525,0.001011519009772273,0.8500014083496041,0.13866814300020042,24,38,57,77,2
0.006568997276620161,0.0009144318576846944,0.8736243085209909,0.14409467662860811,26,32,60,76,2
0.005515312061771007,0.0009684615775480624,0.7509831969588983,0.13929052941400263,30,34,67,73,2
0.005596901321178754,0.0009524810796084643,0.7386200138400296,0.12986871946928097,26,30,63,67,2
0.004545606454597788,0.0009652357151419974,0.6194699115377329,0.11470395439301267,28,24,69,71,2
0.004127672654067871,0.0009624743720595889,0.5664915219058797,0.10946889402052103,36,22,68,67,2
0.004043042613042298,0.0008783247480443326,0.5675652580205607,0.10848965009590972,32,20,69,69,2
0.0039302021804605005,0.0009163158844836673,0.5282341172347336,0.11046979500462038,30,28,74,72,2
0.004448432298546586,0.000904237679816366,0.550220779151265,0.10705540694322187,26,28,67,68,2
0.004243425667695245,0.0009669977997377527,0.5668720089416943,0.10687358496607052,28,28,66,69,2
0.004212653033877193,0.0008384068870076169,0.5504844330228703,0.0931350320653974,26,26,58,68,2
0.004245499152618295,0.0007812495720393488,0.4991205997926462,0.08761669721338146,28,24,52,66,2
0.003921813221596045,0.0008788359174537987,0.5034720583111669,0.10141550792697106,26,24,52,68,2
0.00391643718098161,0.00082893136274241,0.4995657079045414,0.10500442433009685,22,32,54,65,2
0.003607932073878719,0.0008235258881468284,0.4776263537772048,0.10821237174324941,18,34,58,68,2
0.0036522577137754956,0.001035074738895181,0.47682569257069085,0.11893692982382084,20,22,64,64,2
0.003381698573642329,0.0009259713867369715,0.4797717299648628,0.11663134393180317,22,16,61,64,2
0.003043972566947761,0.0009047448360330814,0.43648014225720205,0.11170816451044009,32,21,65,74,2
0.003048057752603811,0.0008725385946361157,0.44652485766653444,0.10747835192597711,32,16,65,77,2
0.0033499897130801403,0.0007736317414374446,0.46722102820175604,0.09774895539712089,30,24,66,79,2
0.003058135853315154,0.0008667243338811516,0.4507188714626767,0.09893863399357782,30,16,65,76,2
0.0031375663638456837,0.0008372840725960325,0.46213090245728883,0.10858926379625847,34,20,68,72,2
0.003165266758328651,0.001017671999810286,0.44243776473550467,0.1182288260530612,36,24,75,59,2
0.0031661333641720486,0.001161931710101507,0.4472172358521408,0.1253152063931106,30,25,70,68,2
0.002907787959589322,0.0011419651982507346,0.4428808572530616,0.1321238671437543,36,26,68,66,2
0.0036966437528781607,0.001099856990163019,0.5152118032929163,0.12697988395041077,30,24,63,67,2
0.0035460835090391518,0.0010851368431937963,0.5436640081608487,0.12542629809662284,24,22,62,75,2
0.003461387498914819,0.00104363276808496,0.5294965159311134,0.12376511150347556,26,23,64,79,2
0.003766999489427288,0.0010883462638901808,0.568779067720094,0.1266099047210074,30,20,67,81,2
0.0035893798259050026,0.0010949782335679112,0.49216322628321824,0.1211559316559996,32,22,63,74,2
0.0040635187876491945,0.0011846749251441145,0.5610945318647709,0.1313167362748373,28,16,64,71,2
0.0040662154483434515,0.0013275014781342245,0.5940799414603207,0.14496709845208747,32,12,61,59,2
0.0036981309550227627,0.001337004339376164,0.529417309021233,0.1450540986342196,22,12,62,60,2
0.0009384766955899698,0.004018175992131552,0.11929126011514833,0.5942371555575505,24,24,60,67,3
0.0008609977243539362,0.0037035471485153586,0.11200579778506498,0.5660624895137587,30,32,66,68,3
0.0009444724305938943,0.0037709202217002485,0.11411238059320475,0.5470287885997025,24,22,61,63,3
0.0008743009058294883,0.003430000002475859,0.10810718123853143,0.5023424190906097,24,26,68,62,3
0.0008942452517779703,0.003920557524953905,0.10721652057802698,0.5444928432209931,28,22,59,59,3
0.0008674812111859546,0.003579488170559076,0.10104649404646386,0.5196580446723393,26,28,57,61,3
0.0007836813204404187,0.0034948924468288733,0.09865178668808781,0.5067998344129094,26,30,61,66,3
0.000839166759134253,0.003607193064897378,0.10173933193973254,0.5084254091288335,22,24,63,60,3
0.0007873878876737811,0.0034700626219971854,0.097699307495031,0.44209209351802903,20,20,61,62,3
0.0008553868976057523,0.0030209952049562437,0.09415705420801157,0.3888220301999603,22,22,57,55,3
0.0008312683084533451,0.0029114024772951956,0.08808484976506224,0.37190231352536945,22,24,59,67,3
0.0007787961847360366,0.0030821980503024315,0.08297401862382155,0.41993471086198797,26,26,57,61,3
0.0009200746480349955,0.003760297770373616,0.09512399980393184,0.5378390865847221,26,28,59,66,3
0.0011186223989007216,0.004809017451988767,0.13324645905660185,0.7426819119080054,26,36,47,69,3
0.0012998522387775544,0.005440414908884649,0.15616657806885034,0.8712811378831332,28,34,47,66,3
0.0013508731276446941,0.005632630916227668,0.1694831303135812,0.9173687426344879,30,30,58,75,3
0.0012973581162801758,0.005162319062194602,0.1625824807273704,0.8426075270978972,28,36,69,77,3
0.0011397065069205076,0.004616629187993462,0.1502088859447355,0.7652510529363294,32,32,77,73,3
0.0011140618416448974,0.004545393381006945,0.15017939965187285,0.7233394295063225,34,38,71,69,3
0.0011099397012278376,0.004397045814705411,0.14061855991937405,0.6725480451845599,30,34,62,65,3
0.001007672057017938,0.0040101998382933565,0.13279847640135412,0.6153731016952065,28,30,63,65,3
0.0009377439930151717,0.0038901891150231686,0.13184597886147412,0.612234607104084,26,30,61,64,3
0.0007778848022361224,0.0035513535523468776,0.10878692627679905,0.539188182871055,24,26,66,70,3
0.0008629722214631013,0.0036783505169849344,0.11865966089155913,0.5837488701981162,30,30,63,67,3
0.000984666042111059,0.0041945997699201236,0.11198313405286879,0.5888161746548894,26,26,62,66,3
0.0009450172166236565,0.00392521012180083,0.12000752508829694,0.6063881188690488,26,26,65,65,3
0.001098816208497705,0.004378772928935654,0.14103617163168972,0.6198227847602176,24,26,64,63,3
0.00109170101897709,0.0041579286499747355,0.1407235659135582,0.6246648580314937,26,30,66,66,3
0.0014483032350457686,0.005492933899755943,0.1705550721040141,0.7223297094710432,28,28,61,53,3
0.0013841152749494178,0.005347825228690885,0.1622766834487547,0.7133451987981384,26,30,67,58,3
0.0012912743911347813,0.005177656323411396,0.15345665759351168,0.7335110686822736,26,28,61,56,3
0.001170612969135761,0.004684963460426901,0.14390666203760957,0.6711524738100727,24,28,60,60,3
0.000996453360143929,0.004384871978116349,0.119012849672011,0.6101812276952366,28,26,63,65,3
0.0009075721714457551,0.0038491248700437885,0.11607396096955469,0.5667689473686468,28,30,64,66,3
0.0008592907358709989,0.003573363873183268,0.11044501888231753,0.5833852079303041,26,32,70,70,3
0.0009037928960195875,0.003599435213036704,0.11082993992394387,0.5696859122942444,30,34,62,66,3
0.0008240985466434144,0.0031447301405279036,0.10648166097338288,0.5099971555818078,26,38,64,70,3
0.0008719388550854046,0.003302845157232376,0.10329919761107154,0.5003501896475461,29,34,58,70,3
0.0009610725479370716,0.0035662915092166177,0.11512309724124756,0.5354824414657218,26,30,53,65,3
0.0010379006640711176,0.003906565237220675,0.11887176183152362,0.5342857282618858,27,24,55,72,3
0.0010855994144980637,0.004052457390408779,0.12360779704926765,0.598395907599539,20,26,53,67,3
0.0011381092697237043,0.0042846029168959795,0.13479044122584052,0.63780593704017,25,28,58,64,3
0.000924531163778736,0.0035007895898683766,0.1121899191884586,0.5152896395493518,20,22,57,63,3
0.000972994782440054,0.003661650146685581,0.11283107902534403,0.5140094372227336,22,24,56,63,3
0.0009741610335234816,0.003515446610522147,0.11228272860340895,0.47749922521194854,18,20,59,59,3
0.0008783378776747323,0.003115736861288091,0.10065004341337674,0.41518504413946866,26,20,54,64,3
0.0008006510675351038,0.003105868661743392,0.09511999356970292,0.41708603991306037,24,26,60,64,3
0.0008583962835646736,0.003147198646840864,0.09676629626347898,0.4123011205964011,30,30,57,60,3
0.000807452364312978,0.0028776598523923007,0.0893492021022605,0.41362049178775445,26,34,57,59,3
0.00021075231717261806,0.0004796469485544606,0.012976316015648214,0.030157246074033982,18,18,33,29,4
0.0002141046005887612,0.0004765822460412103,0.012950054632529965,0.03137380518367674,16,16,31,28,4
0.00021179557280902276,0.0004766569037555997,0.012684778499083595,0.030720901673393173,20,18,30,28,4
0.00021227537077491126,0.0004638051536433675,0.012521948090297708,0.02875490300498512,18,16,28,28,4
0.0002083805827962304,0.00047244887471658344,0.012282768745743883,0.028436689309817093,18,20,28,27,4
0.000210649672580252,0.0004589253877651065,0.011783180025976876,0.026826419347842273,16,16,34,22,4
0.00020396092021460422,0.0004490225731574897,0.011812934105813688,0.027624531438742116,18,18,28,30,4
0.00020345767668804155,0.0004531367701407846,0.011734675071294097,0.02689691274482769,16,14,28,24,4
0.00020505391790637866,0.0004512987789432997,0.012365078683890939,0.028487866364639534,18,16,30,30,4
0.000198441853113106,0.0004322867099350757,0.011963331360636762,0.027079896364191492,18,16,32,25,4
0.00019410651072472487,0.00043928979911951713,0.012074009029181858,0.028059471753235428,18,18,30,26,4
0.00019113004979524025,0.00043393538262333377,0.01173760852468051,0.027474419341501983,20,18,34,32,4
0.00019868119821113327,0.0004185369856885672,0.011849544631590056,0.02659949210345387,18,18,28,34,4
0.00019702156479408557,0.0003943290295239855,0.01157699471583589,0.02613073935966517,18,18,28,30,4
0.00019060270023806106,0.00041774597238350745,0.011677917296000342,0.02635775764011822,18,20,34,34,4
0.0001934834319949972,0.0004075249082329151,0.012213776188876072,0.026618011102165374,20,20,38,34,4
0.0001817270990485092,0.0004083173023509323,0.011633123045781178,0.026229516863282246,16,20,36,34,4
0.00018317678539281866,0.0004054282949535416,0.011484050523177438,0.025702692293850048,18,20,34,28,4
0.0003056828575520793,0.0005960499751740674,0.020519379758037297,0.04074634188111799,18,18,25,23,4
0.00034143863041928227,0.0006593399146092146,0.023685124232523957,0.047818730404386986,18,20,25,31,4
0.0003033054902888811,0.0005975766584593112,0.0213019146847806,0.04444723587734592,18,18,29,33,4
0.00019887537458710805,0.0003883056755333937,0.013451068303463662,0.03206764691217338,21,21,38,42,4
0.0002005895176961243,0.0004238313768401473,0.013693056426447256,0.03319125949283939,18,24,32,35,4
0.00020731474830075892,0.0004177996245995036,0.01272906478986511,0.02940714558309216,23,23,32,30,4
0.00021481145570315555,0.00043086272313618977,0.01295263847935404,0.028964876020112044,18,18,24,24,4
0.00022007965302228791,0.0004506614167477567,0.013118889975163237,0.027810872634943966,19,21,20,22,4
0.00022044996809442483,0.0004560406725819014,0.012975636086020412,0.02796131702136709,18,18,22,22,4
0.00021348720793353378,0.0004682314205910226,0.012378974864487044,0.027976527284944198,17,21,24,22,4
0.00020753449568983054,0.00047370108125595627,0.011868532100716474,0.028560631571851892,16,18,22,22,4
0.00019937504025167865,0.00047631511395977634,0.011262635328240256,0.028781577673490145,19,21,24,22,4
0.00019645742169707215,0.00048745068597633965,0.011202386372413707,0.029234087460879736,18,18,24,22,4
0.00019786148995907222,0.0004998228350542423,0.011285360595346459,0.029528853079671638,17,19,24,20,4
0.00020097279517371675,0.0005032428957675751,0.011307739316128723,0.02958034256153953,18,18,26,22,4
0.00021138263177229597,0.0005123820692993144,0.011437380443150253,0.02982343366106766,17,17,26,22,4
0.00021881658874720085,0.0005146593819407207,0.012074779784223178,0.029815294221285614,16,18,25,22,4
0.00023009188829817235,0.000515111084202481,0.012691957117039404,0.030018141158333286,17,17,24,20,4
0.00023848755722183227,0.0005168088192818334,0.013290900480139449,0.029578577278701144,16,18,25,20,4
0.00024644846328587046,0.0005160727223167239,0.013730902372717079,0.029363414907380515,17,17,22,20,4
0.0002504444905373077,0.0005223464844563379,0.013760424440409681,0.02952182990986546,18,18,22,22,4
0.0002504348475782433,0.0005173082140061394,0.013953530591712811,0.02924303222188143,17,17,20,20,4
0.0002514931063110877,0.0005198789146861904,0.013944776165705271,0.029275765001824074,18,18,22,22,4
0.00025144991845461255,0.0005295008317798757,0.013855795086586156,0.029353803890175396,16,16,22,22,4
0.00025208636850973775,0.0005317854995889049,0.013755007616943546,0.029281832640914388,18,18,24,22,4
0.00025157868627539797,0.0005305186917990201,0.01359014669186762,0.02967667758733248,16,16,28,20,4
0.0002511529899324724,0.000521775976506597,0.013584689475530536,0.029229569929236802,18,18,19,22,4
0.00024766992026475817,0.0005187774059859796,0.013480977291625833,0.028978095385803402,16,16,24,20,4
0.00024825098953540516,0.0005220498116398816,0.013380176295119395,0.028739059949167686,18,18,28,22,4
0.0002428112428960624,0.0005107653484660581,0.0131039514193352,0.028284673421955196,16,16,22,20,4
0.00024123135579486442,0.0005044676443375044,0.013146214600838734,0.02769063418748594,18,18,26,20,4
0.0047477585316464035,0.002567028831492394,0.5395482267203816,0.3014601528575001,22,26,63,59,0
0.004250222506447819,0.0021472377267951082,0.5019941358010778,0.26645466669875517,26,28,65,59,0
0.004230912533398531,0.00216124127492288,0.4891463290728204,0.273836290858226,28,28,65,64,0
0.004249979107639001,0.0020860727401762233,0.4725908146689719,0.26150337571764454,22,26,67,63,0
0.004283170425051119,0.0021856015079651354,0.45637195512194456,0.2775561494651968,26,24,64,65,0
0.004243877108608079,0.0020831757780520707,0.501868217247575,0.2781937577634846,24,24,64,69,0
0.0041618436338087955,0.0022873536359594875,0.5038225901209341,0.2781133030028257,28,24,65,68,0
0.004456568383401518,0.002359430513593348,0.5588812803755118,0.28408613870112875,32,32,61,69,0
0.0040596262727685475,0.002417356494797002,0.5068732324162978,0.2811813797432161,26,28,69,61,0
0.0038705746438177356,0.0022493043898254524,0.49954934052102756,0.2676435750732795,24,26,68,61,0
0.004106538627717138,0.002004056469705801,0.47512489542948894,0.25365515549928125,24,28,68,64,0
0.003706782465613051,0.00217908084099782,0.44655593066186794,0.25109248439391013,20,26,71,65,0
0.0040044562168377726,0.0020342004598050403,0.49010519479009973,0.23799627884053381,22,20,60,65,0
0.0036699792213154285,0.002231881855988837,0.4279392943738659,0.2426911460995438,26,22,64,64,0
0.0036863258653706114,0.0021433886652392604,0.4326332262339598,0.23139330597863456,24,24,58,60,0
0.0033090974453429626,0.0020200903173194715,0.4146434692548145,0.23611664229975052,26,22,54,62,0
0.0032750756740587868,0.0022037273275506224,0.3861902127174515,0.25630271490321294,30,26,61,59,0
0.003367520656762329,0.0025435282579333507,0.40612586150219665,0.2668626941609998,30,20,61,67,0
0.0030513852339521448,0.002719705068804947,0.37622284451501975,0.29505174144860746,30,22,68,64,0
0.003455305424760033,0.00251005370302904,0.4192010358024723,0.2730346545275763,26,16,62,62,0
0.003060247047543356,0.002319278788902971,0.38959118689023764,0.2544334179447713,28,22,59,67,0
0.003267889243760371,0.00215027549635775,0.3977225108006156,0.2409636440855274,22,18,55,68,0
0.00368367527329667,0.0022085743169771147,0.4570562944083782,0.23470755778665833,24,20,51,67,0
0.003058574478368743,0.002352000352046411,0.3980757303104706,0.2512855500773061,20,22,57,63,0
0.0012378701523156855,0.001886013210965186,0.17204597460522406,0.2245479350971705,38,30,73,67,1
0.0013408876928182086,0.0022183940664615674,0.19499890975725728,0.2812137857643829,40,40,76,72,1
0.0015116346519860604,0.00264241692949217,0.22282370612213814,0.3405159516546932,30,32,77,74,1
0.0015639999309198566,0.0027699618406919796,0.2243381253512788,0.35044418691599655,34,36,75,74,1
0.0016400323393187812,0.002806748360218636,0.2221892450534124,0.36888772561512473,28,28,70,78,1
0.0016270022148553137,0.002898528667401529,0.20512422501092634,0.3667398185385847,28,24,69,66,1
0.001727030911938447,0.0030195071076135737,0.2018806388700177,0.37157186742593606,30,22,68,67,1
0.0015932668628732796,0.0026076900644221215,0.2047482660956763,0.3531026670424602,30,28,67,74,1
0.001403866229983996,0.002130359269773988,0.178735460786792,0.31495643319391703,28,30,69,71,1
0.0014338001005808122,0.0022563438293144666,0.17843122860270513,0.2959436925760839,32,38,68,71,1
0.0012375345669796514,0.0022177621619602905,0.15076611334613887,0.24726602083737753,24,28,65,76,1
0.0011593722993325179,0.0024088153369044153,0.13350581539286918,0.23943752187216005,22,24,70,69,1
0.0013173720938737326,0.0020695203017979794,0.14585168563694645,0.2313013622692974,22,22,74,71,1
0.0012965801996186602,0.0021154167096033576,0.14829784572185387,0.2507262337567582,20,36,68,69,1
0.0012157669875043516,0.001968584325237906,0.15265879210379002,0.25623801936295365,26,26,69,68,1
0.001312447751902401,0.001925464547604265,0.1581112702085921,0.25851703975993445,26,28,69,70,1
0.0013622259200179127,0.0019028939438049696,0.1583165861575129,0.24549470548742056,24,28,67,73,1
0.0011619457379973461,0.0018406431133729786,0.15314025904289547,0.23689987497731785,26,28,67,76,1
0.001210130536857216,0.0017675721576028342,0.14584553534070982,0.22925317905246967,32,32,69,66,1
0.0011525967564727075,0.001711003963709553,0.14946115928672934,0.2247410885504156,30,28,74,68,1
0.001239629249619074,0.0017760239224102964,0.15760126029760024,0.23818115951629085,31,36,73,70,1
0.0012944907711487335,0.0014170481421160027,0.16618813271248944,0.20845546577020738,30,32,67,73,1
0.0014451042117140183,0.0014991299800079685,0.1771924624538038,0.2229326069161019,32,34,62,74,1
0.0014050203010680397,0.0016090010786862243,0.1627990771920619,0.20508175970516115,24,30,56,74,1
0.008252739437223773,0.0013269038465685157,1.0122590083143268,0.20298866853390254,30,34,56,76,2
0.007815818275642414,0.0013658191521280704,1.0622460246207341,0.21418792149803478,32,42,58,75,2
0.0072391923503163135,0.0012370748095002389,1.093193759392279,0.2130106459192016,34,38,64,78,2
0.00734366475082868,0.0013456733481868757,1.1788804647983198,0.21707074958926184,36,30,64,78,2
0.007481557675213001,0.0014141311998793443,1.1102597348746093,0.20676581057719415,32,26,66,74,2
0.007089490791777387,0.0012721169367249025,0.9868303679719626,0.18398631458599674,34,30,68,78,2
0.0058563604752551015,0.0012402478899997177,0.8248572946028861,0.17088280614604015,28,28,66,82,2
0.005008387425842001,0.0012309236398494172,0.7101320374104866,0.15796112187817468,28,28,67,80,2
0.004324827012579616,0.0010662856528302837,0.6329734954101459,0.14409691386638868,34,28,65,82,2
0.0037749807978457285,0.0011268775838257767,0.5771641172218129,0.1501114049103345,34,28,65,78,2
0.004698021144920852,0.0011982064070231043,0.6854975121090707,0.1459567249587062,32,24,63,78,2
0.0057036050073561075,0.0009690712743603732,0.8097841546680364,0.13803154029726813,26,32,66,81,2
0.00609759009316501,0.0010069651233327287,0.8449077450365263,0.13425527259064107,24,30,59,79,2
0.006027953990276196,0.0010190844375210098,0.8052205900950986,0.13277781041524733,22,28,62,77,2
0.005350193214937499,0.001055028071533887,0.7339324357279858,0.14141401432635375,26,28,64,76,2
0.004247508212137589,0.0009693714002373125,0.5893902306806309,0.13980387979033365,30,32,60,82,2
0.0035813556030682013,0.0009671021618629192,0.5059331528443186,0.13547236244300848,32,34,61,81,2
0.0034667634720045824,0.0008499650548036658,0.5380469842285428,0.12776328524276778,32,39,63,78,2
0.003395645117820379,0.0008075614998847167,0.4930400734913358,0.10981043167692868,30,30,63,77,2
0.0033015265305558965,0.000756297304887343,0.45687849116258183,0.10318929586899295,26,32,67,69,2
0.003238275653446262,0.0008437224572394561,0.4630867050795721,0.10562773925251398,36,26,72,74,2
0.0032738794175287207,0.0008446565167710296,0.4515818623463225,0.10460170405205815,34,26,73,73,2
0.003383185660175854,0.0008805804288841473,0.4260368992945718,0.11126669839302858,34,32,69,65,2
0.0031692624086798256,0.0009059367369382497,0.3764692416149445,0.11537610531332711,30,27,62,70,2
0.001106948716162238,0.004561160941025611,0.14570621408096998,0.7404832939113233,30,36,58,71,3
0.0012713699924334079,0.005026985744284843,0.15100568131182038,0.7472069326223179,30,34,51,66,3
0.001183609885894085,0.004495880660557504,0.1473414198110658,0.6666983685687989,30,36,50,65,3
0.001208394334225433,0.004454723027636354,0.1385733922350742,0.647923150517236,32,38,55,65,3
0.0011170374809412761,0.004001532331212724,0.1259752099850556,0.5535695703929795,30,38,53,63,3
0.0010866505666823516,0.004008317098092791,0.12625259665996608,0.5457534808621535,28,36,57,60,3
0.0010738393540801147,0.004066517968506009,0.12833142347989798,0.5810312718488838,34,30,56,66,3
0.0009814943123336068,0.004022295655723394,0.12323811941915339,0.6009967285266474,32,36,65,69,3
0.0010581714962268913,0.004337716556832277,0.12801072023578383,0.6605260701426572,32,36,59,74,3
0.0010039348015025585,0.004123187996307048,0.12342991832586657,0.6587288818295682,32,34,63,76,3
0.0010331477679255746,0.004602511391724095,0.11857980353712946,0.6682730140856218,26,34,68,71,3
0.001049163588310356,0.004191893468186286,0.12679800471985703,0.6426439905674382,30,30,61,69,3
0.001111535631679769,0.0045129524512382314,0.13761892617969812,0.6802143069510234,24,24,62,63,3
0.0010415106399539432,0.004404361959101899,0.1300998172895153,0.6739316081657138,30,32,60,60,3
0.0010809562608498926,0.004265547581577483,0.13058536351044941,0.655067102575921,22,26,58,60,3
0.0009897245621242896,0.004318719513930194,0.12026082663750559,0.662596800121149,26,32,58,62,3
0.0008937963678681728,0.0035671531955671636,0.10881623718035607,0.5794482337034218,30,36,61,67,3
0.0008938668840424326,0.003545275694154633,0.11406000997758341,0.5784968202891483,28,36,64,74,3
0.0008749536963739294,0.003633251778744034,0.11514775129983679,0.5876187779178782,28,32,61,69,3
0.000864987858431563,0.0038124182814359697,0.12085136384386949,0.5654375298052113,32,30,64,65,3
0.0009834384594593671,0.0039131208756888105,0.12055757301329491,0.5690163359446816,28,28,59,63,3
0.0009562673492475897,0.003915919355871195,0.12712682120958751,0.579941778107146,34,32,62,70,3
0.0008812713485977235,0.0035982662001575027,0.12156654103635094,0.5607725175773693,28,30,66,70,3
0.000947325677716367,0.0037053004978591223,0.12088758041023116,0.5621471531234767,30,30,59,65,3
0.0002145713012444227,0.0005361085505226996,0.013147824180813448,0.04618288765384238,18,19,39,69,4
0.0002165037677723923,0.0005411848833117905,0.012902464926418644,0.045689496658600726,20,20,42,69,4
0.00020689560991109503,0.0005327516174466543,0.012502646850317645,0.04442644137100201,16,19,41,56,4
0.0002060426403151495,0.00048279539454651867,0.012304122515986872,0.04203239628580861,16,18,38,55,4
0.0002135208850261852,0.00047634283511974873,0.012390599464885356,0.04043680842109449,22,22,38,57,4
0.00020876521108666374,0.0005051559903778886,0.012578610157425308,0.041789116061096754,18,18,42,63,4
0.0002148473872696785,0.0005138835915447594,0.01280448531376881,0.04506467243149327,14,18,40,63,4
0.00020684793319867306,0.0005413537178769417,0.012571112895193045,0.04400601051080305,18,22,44,58,4
0.00020438203762756016,0.0005105663489761846,0.012729055505962997,0.04260546341178791,20,26,32,59,4
0.00020444136292382842,0.0004822045281659301,0.012573125973288288,0.041937757628174456,18,18,32,50,4
0.001055046729481004,0.003807294220587112,0.058289743194758076,0.2191638086513443,4,4,31,55,4
0.0011419052612707077,0.003914697059209288,0.06457752502566574,0.22241092244754193,6,4,35,58,4
0.0011987252944362715,0.003750023295204876,0.06927583654503246,0.21181104311635238,8,4,48,78,4
0.001117941752701921,0.003472652787421769,0.06411671992893378,0.19586806266170534,7,3,50,79,4
0.00041642795321077597,0.0006719199183058417,0.03053983746356842,0.047640250325040955,16,16,31,41,4
0.00022347174937730212,0.0005080977759336889,0.012967441471614691,0.030985844389938826,18,15,32,42,4
0.00022218082862594492,0.0005527999396875571,0.013260343528722638,0.03268219663941842,18,18,33,47,4
0.0002198566765323055,0.00047124962771328535,0.012879902962647922,0.029557258262240524,18,19,32,42,4
0.00021788756287566234,0.0004991849729447415,0.012920882612079002,0.02788532737247411,20,18,31,36,4
0.00021996600321049696,0.0005085149438863192,0.012327724874733076,0.028675240686502314,20,16,31,30,4
0.0002219952142127054,0.0004826474189703993,0.012276598041289449,0.02778743964778805,22,18,34,28,4
0.00021833190045454068,0.00048630207253889127,0.012755480738376833,0.027363279885510305,18,16,29,30,4
0.0002197259805953669,0.0004788064156659801,0.012984984972310614,0.02827949411792579,18,20,32,26,4
0.00021965981457292005,0.00048115894266015103,0.013228078330897144,0.03061036157826638,16,18,29,32,4
