f1ch1,f1ch2,f2ch1,f2ch2,f3ch1,f3ch2,f4ch1,f4ch2,Category
0.0015338557258996297,0.0026923198804041826,0.16656944957500297,0.30200877407606197,18,24,55,58,0
0.00222858873005383,0.003701470151882261,0.2748674906368173,0.4354418700551093,24,24,60,58,0
0.0029886868378969584,0.0045901724282569195,0.3733907663730931,0.5751962207309194,30,30,62,67,0
0.0037812357489213633,0.005679256275864134,0.4509327601003962,0.6912897385579329,20,26,61,59,0
0.003916835831418504,0.006191523994452403,0.4659301448062701,0.816361515567936,22,30,62,55,0
0.004379097503589037,0.007224475172261454,0.5282267472806934,0.9496870119563711,24,28,59,55,0
0.004596567154882607,0.00776043513343591,0.5693020872713921,0.9849623679535807,24,30,56,52,0
0.004486584789452114,0.008041167678495416,0.5663620929632412,0.9957083652578068,22,28,57,58,0
0.004894225471715164,0.007287966258970804,0.6238465204687145,0.9584429043181758,20,28,55,63,0
0.004939546732231092,0.006468831734065042,0.6256633719654944,0.9203850297015735,22,36,62,64,0
0.004665593511521904,0.0062438192210003875,0.6047282918638484,0.911960342821828,18,38,63,64,0
0.004962480263719263,0.006840589501039065,0.6279011218699945,0.892343469883018,20,32,60,62,0
0.004924518450646266,0.006786833546415693,0.6302616900609053,0.8996474051833974,24,36,56,59,0
0.004814036380702996,0.006247623881710281,0.6064574460824441,0.8172342388921535,24,38,54,61,0
0.005288375472541729,0.006835660304694385,0.6390801276553131,0.833489572965363,22,24,53,61,0
0.004901946233106189,0.006068508930097205,0.6253295500311633,0.8090810891886681,26,28,56,67,0
0.004339320999558067,0.005601382690764949,0.5733456802434049,0.8199296956928934,28,30,64,74,0
0.003720736359603764,0.006351586840187647,0.5447819514365684,0.8922486097730332,24,28,65,73,0
0.0035353928205563556,0.006169526535869187,0.4915259362752241,0.8629535850990947,24,28,70,67,0
0.003251843652522033,0.006028113545773923,0.4606972695626278,0.8172061955459489,26,32,76,69,0
0.0033731299882215093,0.006432593626721677,0.44770474903362917,0.8235785141185926,18,36,75,68,0
0.003449244271828671,0.006272582412196539,0.4593008176912676,0.745869230836482,20,28,73,70,0
0.003239008130347468,0.005807558931092713,0.4774333489697444,0.742676511685044,26,30,70,69,0
0.0038822516494085297,0.005888034927388406,0.5529137917448769,0.7821796695260838,26,28,65,62,0
0.0043081395668647295,0.005513570472975119,0.5767655832281924,0.7256556010978081,28,24,61,66,0
0.004727736214689326,0.0055314892895537305,0.6599900577084118,0.8075682253701093,26,30,63,66,0
0.004769812435538436,0.005497724668948314,0.6296079104504718,0.8316129834423064,26,32,65,66,0
0.004420595638381656,0.006060412416766581,0.6111176643553217,0.8699581674681585,32,38,57,67,0
0.0039884709531953395,0.0055324949218280425,0.5623696841755468,0.8830786106469257,30,34,66,74,0
0.0036160661093264513,0.005970859500257149,0.5136947121851726,0.8397979190273829,36,32,66,70,0
0.003454662008467884,0.006379853476834383,0.4766704216977126,0.8364303676542388,26,30,71,70,0
0.0036559059732082914,0.006273071469594168,0.46555703565034934,0.7943452052956085,30,32,69,72,0
0.003594838388406893,0.006934189889785874,0.4522001096683664,0.829533874075003,24,28,70,73,0
0.0037228373320513917,0.006720583693670584,0.46356487187217826,0.8787077450865898,20,34,72,73,0
0.004338669675635815,0.005757778924989005,0.5495039053767744,0.8193459731837506,24,32,69,78,0
0.0038402546370600297,0.005857107716514202,0.5128833033348892,0.8089912031194442,24,32,66,77,0
0.003826315833720905,0.006519874339980457,0.5235254387125582,0.8381984967562787,26,28,63,70,0
0.0034365951269306385,0.006021846796113467,0.4823395530242584,0.7806631658958292,22,32,61,60,0
0.0028908737181776267,0.0060489151650875575,0.43222393465379305,0.8155340169381824,28,28,64,57,0
0.0022017739596438533,0.004834349213432454,0.32417328525730427,0.6599599283585424,26,28,70,53,0
0.0016284321142228904,0.003928515539467953,0.24713098914186352,0.514109999318879,24,28,76,54,0
0.0015393399748521988,0.0037559755009371264,0.20280157923010433,0.4737070201023044,20,30,67,62,0
0.0013709186097818963,0.004190278878343261,0.17024773934609694,0.4562719928579932,20,18,62,54,0
0.0019190595267496032,0.005448498239648772,0.22688275390404194,0.6538084530715714,24,22,67,53,0
0.002396050564713314,0.005919700854506984,0.29557087908740287,0.7476816698697214,24,28,75,57,0
0.002701228439310262,0.005750774516033541,0.35519872117095835,0.75500245331393,22,32,79,61,0
0.00306471557877472,0.005681678516602226,0.38390799526850133,0.8171953428103705,28,34,78,61,0
0.003558958797052184,0.004960012182468904,0.4674885905822834,0.7475039105001544,18,32,75,66,0
0.0005572710915559563,0.0011273521709572742,0.07253291467779022,0.11848387912765242,30,24,69,63,1
0.0008113191711692783,0.0014804020987076955,0.10732930766929841,0.15614496472726075,28,18,67,60,1
0.00130726174571963,0.0020659426662157244,0.15537018138148212,0.24503889348193775,24,20,66,63,1
0.0016238016179985475,0.002553994777066028,0.2087577349182891,0.308151928839416,26,28,72,62,1
0.002150572268738959,0.0032007408868941338,0.2826926315659498,0.3918395995905875,32,26,75,61,1
0.0024738333242595094,0.003471203497869444,0.3171634823582367,0.4347380027549234,32,30,78,61,1
0.0025705096355015263,0.003684366458348638,0.3615384325954121,0.4521926437063457,42,30,76,63,1
0.0025600521731328095,0.003941175809404351,0.38294463934130424,0.47685027625328263,38,28,76,62,1
0.0025274851943470605,0.004155876421455983,0.4015958771855809,0.48316850826337604,44,22,68,61,1
0.0026708195067610195,0.00374732559024591,0.4456426530942283,0.46349329002446227,44,20,73,68,1
0.0029071730434219066,0.0037435837897901187,0.4422664353685811,0.43143967631711627,42,24,75,71,1
0.003325650659387913,0.003511599038450061,0.45577930807103323,0.4265160539118619,32,30,68,71,1
0.003447352477013384,0.003130258296284779,0.46640624983982454,0.3736791069202661,28,26,67,68,1
0.003352280443766351,0.003387572372049014,0.4481109519808017,0.39382243328506705,24,24,67,61,1
0.003694784818962567,0.0034062842198016386,0.48028227336184987,0.39769376386896016,26,24,61,62,1
0.0033475835005986037,0.0037997377205157314,0.4788789343950737,0.4104901098195761,24,22,70,61,1
0.0034858982155283502,0.003721478278292495,0.4637766755603349,0.44822353036812773,26,24,72,62,1
0.003596051557554916,0.003960147167198979,0.5275810929256372,0.47390409396593086,24,24,69,62,1
0.0036343871311895048,0.003785211501471274,0.5430420806452999,0.4379651218421334,24,26,73,66,1
0.003652981310019478,0.004173003058390756,0.5638018520491244,0.44063486721480594,24,28,74,63,1
0.0037270268903575546,0.004054720591741634,0.5721936320131916,0.47825644548728397,30,34,73,66,1
0.0032215174761712007,0.004096028330401424,0.5601253051391702,0.47976039096465495,36,32,72,67,1
0.0030406042493527534,0.0039306916177291274,0.5266938659931901,0.47576935928152475,40,30,76,67,1
0.0031324087674930194,0.0036291133276508698,0.5445200870308251,0.47274271376013255,40,30,73,70,1
0.003118249400548417,0.0032012996106813357,0.5097150549972309,0.4398955927763954,36,32,76,70,1
0.0031384012398953114,0.003373286104036405,0.5129811778202319,0.44908712536134965,34,28,76,71,1
0.0032551911594925803,0.0038628131692133665,0.49776766123140526,0.5267511392139969,34,30,78,64,1
0.003077089268507551,0.003856585251820273,0.4490188826319174,0.5243110471799223,32,28,79,65,1
0.003075150853674657,0.0037833251761031405,0.47977988439085395,0.5056636074623287,42,26,81,62,1
0.003215659312397673,0.003690721636597361,0.46550667352458885,0.46154351385977654,36,22,76,62,1
0.0033965124717710827,0.00311155706054897,0.49148800110886665,0.41909238224692374,30,30,77,69,1
0.004126942115370478,0.0032648386210410462,0.530183027312898,0.40359640121002754,30,30,71,63,1
0.0042427794136686795,0.004069743706068657,0.5210697033939643,0.4636877573944883,28,30,69,61,1
0.004124474929899083,0.004102758744056478,0.5105565381066686,0.4693393541623875,24,26,66,61,1
0.0040742816981507515,0.004365353422891379,0.5063617760605582,0.49873416448027375,26,26,71,63,1
0.004094416363894672,0.004359352321301293,0.5222485929521838,0.5232049229267844,24,26,70,57,1
0.0042994166687980164,0.003800690868816715,0.5360782616367965,0.47352476606571353,28,28,69,62,1
0.004332053116940536,0.0036701348382023836,0.5527056091535895,0.4712935131756939,38,36,69,62,1
0.004395631735131791,0.003674856999120164,0.5789709863495882,0.4705818956836198,34,32,67,64,1
0.003972260821076241,0.003232747711334091,0.47801510454025015,0.381504476389965,26,24,64,64,1
0.0035971373048915107,0.0029103252788031542,0.4337398388440411,0.33668227379789123,18,20,55,64,1
0.002978409066605449,0.0034778740658487767,0.3518698517932461,0.3634107528751874,24,20,58,61,1
0.0026134652682415155,0.0028730464228077894,0.29344059308449993,0.31807542921914067,26,20,57,59,1
0.0028144735716245017,0.003217173928920062,0.3211303755198667,0.37853583164780497,24,22,67,58,1
0.002775279737894787,0.0036443025236739058,0.37081166590151315,0.45368364848964543,34,26,68,64,1
0.003074639714659256,0.003585596989804475,0.39531085258191306,0.42760837455745054,34,26,66,58,1
0.0036116176709543326,0.0036810851110258636,0.4360030582134307,0.4683680671475062,24,24,65,58,1
0.003468511917672479,0.004010132951473291,0.4495801875958671,0.4650084074073521,28,26,61,55,1
0.000780207772486054,0.0006314215265531296,0.07348504504332194,0.05642265281691752,12,22,53,56,2
0.0013467113624433945,0.0007068434590588936,0.12359256491273712,0.08123250807310968,12,23,47,53,2
0.0017310562743071975,0.0009358096547294727,0.16591599643686974,0.11357047832490771,14,22,50,60,2
0.0020032489004787116,0.0009678674788511501,0.20896639894993632,0.13067116737586165,16,26,53,66,2
0.0020216941028622353,0.0011145038512105673,0.2279654208563205,0.14499076938484765,20,24,58,68,2
0.0025609299832738963,0.0011905719482063458,0.2915773502524421,0.1529496955815272,22,33,58,68,2
0.00270875143193347,0.0010422819440250731,0.3508226488008968,0.14863908886598096,16,38,63,70,2
0.0037706185118641807,0.0011742550543850584,0.5007899979792906,0.1669936757324459,22,38,57,74,2
0.004035829221910195,0.0010869781038730084,0.5611481108222343,0.16522771196374927,22,38,64,78,2
0.0045073645172486595,0.0012724898215540127,0.6177945623855214,0.17321684730499323,24,37,62,83,2
0.005197231937737411,0.001239584916038794,0.7671768290917299,0.17812769099918663,30,34,62,82,2
0.005027127539865509,0.001469742262703164,0.7366454168138841,0.17929164016421584,24,26,63,76,2
0.005499788187509808,0.0018043689003169386,0.7903820233675812,0.19144838059144625,22,22,61,72,2
0.005289055734343298,0.0017887444984055869,0.7637466474729852,0.18011176218077096,26,26,62,66,2
0.005005898462540973,0.0019103431149735484,0.7380718863273099,0.18337474872641307,26,22,69,65,2
0.004642841928128277,0.0018182590160380305,0.7204975815117113,0.18569248485403378,30,24,69,72,2
0.005500675940404361,0.0015006152819860244,0.8916933749968989,0.1908077050063225,32,28,71,76,2
0.006079946411561708,0.0016068954039772537,1.0202707059356082,0.2198168413142778,38,34,75,82,2
0.0059039208351952055,0.0015608424032554325,0.9911015818370443,0.21681755632369315,36,30,75,82,2
0.006736620964581579,0.0016061315939883208,1.1610579616996772,0.21695165597612154,42,32,69,81,2
0.005907932655277123,0.0014158061055743467,1.0223887614564444,0.19701068153531004,38,32,76,85,2
0.006117404235751415,0.0011984929378989749,0.9802312844148111,0.16129510382018616,34,32,73,84,2
0.006082895068222944,0.0012504511159774933,0.975225337070501,0.1737708805015329,30,36,75,83,2
0.00602449450195809,0.0012351731352977322,0.9149300444909803,0.17791161033202532,32,40,69,83,2
0.006529963434684707,0.0014073660137022407,0.9474440593277035,0.19909199492625568,30,32,67,82,2
0.006716945220129806,0.0015782496938408044,0.9730926450237602,0.21583586316709868,34,30,64,81,2
0.006157768990280421,0.0014134687838635851,0.9495293554868034,0.19867098204198008,30,26,67,78,2
0.005698904381315174,0.001359489795562995,0.8671346652469433,0.20645034992776887,30,30,67,75,2
0.005168304976059059,0.001103240213389568,0.779856844050547,0.18183731288985197,34,32,71,77,2
0.005043823833888631,0.0010346612793528831,0.7303010274245271,0.18930760605002075,36,36,75,81,2
0.0051598730027555065,0.0011287579019859158,0.7457559450108104,0.20209384228333216,38,32,74,84,2
0.00547941109891886,0.001239880447633246,0.7774399599746733,0.20195305374304012,32,28,76,82,2
0.005734466773340456,0.0013548709542330402,0.8123266914445946,0.21624568486725446,32,32,67,83,2
0.005579050557791331,0.0013599649415579145,0.8123197747406057,0.20751380312925394,30,34,69,81,2
0.0052482218297480844,0.0013046096948440237,0.8274831261312248,0.19469185680968246,30,30,78,80,2
0.005376897443527123,0.0013387802058198622,0.8626146247161088,0.18620543023483746,32,28,80,78,2
0.005826689847577905,0.0014120957355062338,0.8707317920188845,0.18655582849589508,30,30,79,81,2
0.005645533450192301,0.0014059162175559337,0.903166291502984,0.18962610108594563,32,34,75,82,2
0.005668018007422136,0.0013960227684680034,0.8877554897626649,0.18542861307109787,30,34,72,81,2
0.0043336572149253695,0.0013472902454973476,0.6578470678949928,0.15675150873612104,26,30,75,68,2
0.0027966635894443397,0.0010351563337858483,0.430569431595969,0.10988807828819228,24,24,79,63,2
0.0015209139205009077,0.0006134497511049682,0.2045673985655626,0.06803111816884166,12,22,63,66,2
0.0003093378032823694,0.00040665900398788443,0.036056749370606545,0.040747167875400184,20,28,63,68,2
0.0006576615723521828,0.00043962746975900773,0.0612015326021521,0.04204447245114065,10,20,62,68,2
0.0008949328550808683,0.0004885222960970653,0.08300362169296926,0.05351960252978285,24,28,59,78,2
0.0013007653720614799,0.0006387974981743944,0.13251426942533784,0.07310297934398462,22,30,64,70,2
0.0018666708845163915,0.0007537482426704625,0.20110122585403917,0.09062268688563636,20,30,58,72,2
0.0022421304463861765,0.0008012991698287139,0.2640549608958468,0.10649457422464116,22,28,63,73,2
0.00011070840726406295,0.0005939706082796457,0.010369284580251855,0.05219432410658874,24,18,77,46,3
0.00012481017560039048,0.0006681691383316441,0.012978868596304012,0.05842436887842854,22,20,68,50,3
0.00015714973562342934,0.0009833396507098755,0.018168301174276837,0.08786083336656417,18,18,66,51,3
0.00029738679342885014,0.0014911443372653912,0.028762332613574755,0.1514100876928493,17,20,63,60,3
0.0003296452251699784,0.0019238433777475509,0.03475859646207814,0.19360353053700885,24,18,60,61,3
0.00040044688384569427,0.002847937471695011,0.04639706444649664,0.288720784559091,22,20,67,60,3
0.000475023176518217,0.003095243764698251,0.057038323995627624,0.33684170613505765,24,26,68,63,3
0.00048355247974623525,0.003590648262039106,0.06520763942918929,0.4461734721371096,30,28,71,64,3
0.0005719794460088049,0.0038552450480754345,0.08205943095110015,0.5082402913785714,32,30,77,65,3
0.0006785002617426138,0.004154131875334858,0.09899810304479491,0.5708401087016685,40,30,80,73,3
0.0007759324276051132,0.005009481951359755,0.12424394849186449,0.6672433967748208,30,36,82,65,3
0.0008060909618211716,0.005888750689752723,0.13660152039438972,0.77280811820623,42,32,83,62,3
0.0008984266649799267,0.006396016369839115,0.14415760151956428,0.8207178280775467,38,26,75,63,3
0.0008533141423236583,0.006103499845210348,0.13453645260441546,0.8239678485284764,34,34,70,62,3
0.000763242738283373,0.005584882688789071,0.11444056741675736,0.7871638924678233,36,32,64,68,3
0.0008126731737893777,0.004463500516688601,0.12132307187539529,0.69570944926651,40,40,67,74,3
0.0006750520608135278,0.004673959920857256,0.1122739321007963,0.7202709861141817,32,38,71,68,3
0.0006676813582973635,0.005051809127678267,0.11230524250614754,0.7650283709028594,32,32,79,68,3
0.0006251229457512167,0.0053106140423594605,0.11296811502899091,0.8060847393348693,34,36,84,64,3
0.0005805093978658426,0.00543012639916021,0.10537739577517152,0.7847307587574927,38,34,87,63,3
0.0006949754572931731,0.004988040547700764,0.11430223619472844,0.7102779303232518,36,30,79,72,3
0.0006836243496219728,0.00497082013768683,0.1199166587691186,0.6764562932764399,34,34,78,70,3
0.0008001031702063176,0.0054038601533516395,0.12753588111585856,0.7352170298573509,38,32,70,68,3
0.0007483243719894925,0.005622534824009801,0.12146659510736915,0.7536751932406484,40,32,72,65,3
0.0007388338604513517,0.006263108254740698,0.11531195887778306,0.9306227473061218,36,40,76,56,3
0.0007308316485378887,0.006033604687252959,0.11334413168955502,0.9318183754655992,38,44,70,61,3
0.0006506835234674554,0.00580142780249581,0.09676422817794192,0.8663235939874718,34,36,75,68,3
0.0006239090848567657,0.005347608689585885,0.10085172393271687,0.8121181501795632,36,34,77,79,3
0.0005335734765070093,0.004421259219927601,0.0941703654681198,0.6538827802129129,42,40,74,80,3
0.0005166582180696763,0.004347234967701424,0.0903776411225385,0.6078288737843893,40,30,81,75,3
0.0005399696002250398,0.004153325154125131,0.09374216573125035,0.614597472412872,36,38,78,69,3
0.0005048479681591953,0.004326544002282365,0.08488988225991045,0.623962980622721,44,38,73,64,3
0.0005288408772889271,0.004291674933263833,0.08816192441625137,0.5822895180688148,40,32,71,70,3
0.0005082736688807746,0.004398734758210471,0.08491531487100563,0.640398217875541,38,32,72,58,3
0.000535671279344029,0.004033445540018259,0.09059226896266707,0.5814171816892154,36,36,72,66,3
0.0006323455358457764,0.004883105068339622,0.10090132675674382,0.6399122996053277,34,30,70,70,3
0.0006727468590810646,0.00455476771067853,0.09979563912330906,0.650025966122969,40,28,72,68,3
0.0006844658529407693,0.004353289338083808,0.10201643057374678,0.6149256182727258,36,30,69,79,3
0.0006288784515820879,0.004967591454560199,0.10466518468459224,0.6785391474024235,40,28,78,71,3
0.0009545623184389882,0.0041578316108004006,0.09797748996448168,0.5022145446028273,26,22,71,64,3
0.0011127663690807686,0.00397989643802124,0.11762579979429777,0.44743031582285414,22,20,67,62,3
0.0011664377239171333,0.0038817520519312332,0.12204492920278036,0.4302681613817964,24,22,65,48,3
0.0008014983939875401,0.003050723467145996,0.1206594154579049,0.34495843690649197,28,22,68,62,3
0.000916165227147361,0.003760813401674713,0.141361989959394,0.4541580262989396,40,24,69,59,3
0.0008730179426029881,0.003258241918144213,0.13376634160249085,0.46258414003597564,36,28,71,66,3
0.000877646434927855,0.0033655133882663007,0.13416099695310651,0.5012446969278754,36,34,73,66,3
0.0007800874841525193,0.0035253191881939134,0.12511298509389168,0.5026201748555821,38,36,75,65,3
0.0008027806927427977,0.003686898902070008,0.12352066595788878,0.551392108447511,36,34,78,68,3
0.00022344043143270476,0.0007191654581205563,0.03024590510102245,0.06290481153398585,28,20,75,65,4
0.00019662767965448823,0.000674327833339053,0.027601059661674435,0.05993489861497979,38,14,78,66,4
0.00016307561185002463,0.0005988573389994698,0.025702381989807184,0.05492867391899875,34,22,85,54,4
0.00013224136757915666,0.0005541303941361764,0.01960787821233459,0.050984293988918884,27,24,86,52,4
0.00011503176690211294,0.0004750999363638509,0.018681060712784067,0.04252586254877811,38,22,88,50,4
0.00010812378621850514,0.00047508063661129147,0.017341630601505263,0.03962787576189636,41,22,79,50,4
0.00011307587676097495,0.0005027021613213093,0.01604368336017908,0.041948634929716934,30,20,77,44,4
0.00011871099623932309,0.0004946311592719639,0.015605141431365599,0.04177226934031646,39,20,77,48,4
0.00011105886138551487,0.0005286505271020541,0.01506015155938734,0.04332690100400554,28,20,73,44,4
0.00011619227982614629,0.0004862884320269429,0.013907387759098118,0.040954094010737345,31,20,74,44,4
0.00012092841573132883,0.0004884372151922793,0.015196890017197895,0.03836341472503341,36,14,71,46,4
0.00012498680560753332,0.0004726620730490913,0.015280519161391897,0.039997515740589226,32,18,69,48,4
0.00011669043582985534,0.0004775889007668196,0.014915792621485385,0.038947079276769804,36,22,72,48,4
0.00011989731446495502,0.0004927496790689692,0.016865814895930187,0.04149446877837118,40,22,76,55,4
0.00010565085719982354,0.0005476047654139516,0.013871837038308622,0.046607500062356595,32,21,85,57,4
0.00011679444548507368,0.0005072052472375313,0.015050614052366833,0.04386196983726564,32,20,85,44,4
0.00011009556342107246,0.0005365133829609056,0.014466935013756267,0.05054665166543777,36,18,84,43,4
0.00010557902295242714,0.000540724626585843,0.013801364739189434,0.04945391868976073,37,18,85,38,4
0.00010587729086314252,0.0005050331609941016,0.015126144137655784,0.0447446453440671,36,20,83,44,4
0.00010892605145477467,0.0005128689828743434,0.015290959566219873,0.046256378726285144,33,20,86,46,4
0.00010759023498372267,0.0004961143714578266,0.016385390475544742,0.04058892823826651,38,18,73,62,4
0.00010324203025079866,0.000493411557251064,0.016473979625303357,0.04108343492356901,38,18,74,56,4
0.00011967155703811384,0.0004942393685222563,0.018060708131350068,0.0446002321232616,38,19,74,58,4
0.00011862994457663579,0.0005603106168358036,0.017114396304742114,0.04641099076160347,36,20,79,57,4
0.00011163745130873957,0.000590605146644185,0.01657165286978939,0.053796418409084445,36,23,82,50,4
0.00010875374485126193,0.0005592858312372883,0.015533759348307507,0.05007947418413129,38,22,87,44,4
0.00010347301655852144,0.0005371776270822075,0.014795231534606223,0.047483986459650206,34,21,89,47,4
0.00017827490946285967,0.0008466298070316895,0.018857747020246004,0.06458710408830234,21,18,79,35,4
0.0005394811136844947,0.001354863306480343,0.04333279974885989,0.0983964978312658,10,12,68,36,4
0.0008965727289340087,0.001358999300390388,0.07152453336856616,0.12401491199277517,10,14,56,47,4
0.0012517212887502862,0.00123213514153353,0.11671708042794206,0.13292163622578626,12,18,47,52,4
0.0015125182495822757,0.0013643320647823201,0.13880031797762268,0.15271838525529788,14,24,47,65,4
0.0014082625229874966,0.0012050770625389611,0.14126340209881366,0.13469379691575956,12,22,54,64,4
0.001372251938233659,0.001127218289053553,0.1371892126405195,0.1301542869433739,16,22,47,70,4
0.0012059145890832323,0.0011211492636199233,0.11882898781105228,0.121344721726053,16,16,51,76,4
0.0011201794521953955,0.0009617258074871346,0.1109802452360099,0.10416686836815048,14,20,58,69,4
0.0009690775107651445,0.0009221692720725112,0.09987986858125886,0.10415108393381428,14,18,56,67,4
0.00094611996698311,0.0008284597900602356,0.10143180513105798,0.09065984015676593,14,19,64,63,4
0.0007475262824474219,0.0007538582388846236,0.08371314515724416,0.08023992665026847,22,22,65,64,4
0.0006927381242781302,0.0008767128398517261,0.0765486432131508,0.08512747444408403,30,23,69,59,4
0.0006631245555860886,0.000648874739823605,0.0746859969511318,0.06990617080909706,20,20,67,63,4
0.0006687076841340138,0.000603372021864584,0.07144273708420763,0.06462046630256756,20,21,60,72,4
0.0006224818080893765,0.0006361800503331703,0.06646938127033285,0.06332497822231002,16,20,61,67,4
0.0006899264361749705,0.0006474063429015822,0.07121050919620868,0.06513440717177621,22,25,65,64,4
0.0005772188249301842,0.0006720656610336461,0.0629567273084164,0.06628075741650909,14,20,70,63,4
0.0006409286953896183,0.0007034002651148517,0.07269421387310308,0.06346636370384394,16,21,55,62,4
0.0006388574368094073,0.0006948616801610659,0.07030385880144899,0.06675426069550204,18,20,61,60,4
0.00055587198263329,0.0006741471211308626,0.06330917602881439,0.05934369109578659,16,23,60,61,4
0.003390266202517272,0.00484735230998346,0.411310155157358,0.6060395085740315,28,24,63,65,0
0.0037919151022546976,0.0049939947213357904,0.499143489885188,0.6713860109483085,24,28,68,66,0
0.0036627096743512277,0.005024361364864108,0.46682719629156827,0.6603114097979208,24,36,70,66,0
0.003755993789417255,0.005166788313610079,0.4829362645030077,0.6987475377498368,26,32,66,58,0
0.0034543357654264533,0.004696287379631091,0.45175818713878163,0.6215495111780162,28,32,64,63,0
0.0026575103673260993,0.004379187236314414,0.3552442309010426,0.541269188187432,28,28,65,72,0
0.002554095275657981,0.004336671289113189,0.34136976105784517,0.5294891724428753,28,28,65,69,0
0.0026214025047380913,0.004160618480169781,0.3298418379538846,0.5169402449600022,24,26,68,71,0
0.0033043016361084757,0.004401288230353725,0.36892533204880384,0.5257017264204725,26,28,58,73,0
0.003093256092197411,0.003327735221901657,0.3339869985129994,0.4410529713377384,22,24,54,67,0
0.0026698436995228223,0.003352829396349871,0.27960817147653844,0.4377427195989013,14,22,60,57,0
0.002165766243895141,0.003305714312693739,0.2669914495721712,0.4298138317137558,18,18,64,59,0
0.0017547652475341732,0.003956318320886428,0.24757105779244032,0.45469931009687486,22,20,72,57,0
0.002456421781807793,0.005268798804241687,0.337475304472982,0.6344209844067282,22,28,77,57,0
0.0031102560985996775,0.005672377927419444,0.39888874522684026,0.7020140576765062,18,28,69,65,0
0.003156159714951709,0.005608038353876029,0.3778082301957258,0.7307677585282002,16,30,69,63,0
0.0034514246768762528,0.0054385614312684296,0.38623318210964214,0.7801882245636758,14,32,65,67,0
0.003388840763638065,0.0054266013163930945,0.3784341438210736,0.7569034826800861,16,30,57,64,0
0.0032477865093539526,0.005584781103024258,0.39449710662110743,0.7668651235247776,18,32,62,62,0
0.0035140834111214436,0.0060044505928324235,0.43712732622247974,0.7928088768795023,18,28,62,58,0
0.003242020363805557,0.005588963569421452,0.44086462311369495,0.814234793268526,24,32,60,63,0
0.003344890595949749,0.006166822998988923,0.4632094140430931,0.8718211355070671,22,28,66,62,0
0.003691447804542379,0.006629578149390492,0.47621719760304404,0.9000768136151465,20,32,69,59,0
0.0035332647070257604,0.006492289513417391,0.47222381899544497,0.8659741374782156,26,32,68,61,0
0.0030251502425906133,0.0061960982722729365,0.42632894655275677,0.7986712981397219,24,36,78,54,0
0.0032867151633720593,0.006476173628963123,0.46069906566803864,0.7954227486429455,32,28,76,58,0
0.0033627946487811916,0.005534457641996723,0.44321082373228704,0.7489247124774028,26,32,73,62,0
0.002974220871315111,0.0056282673546823835,0.42440032546447354,0.7369819698908027,22,32,70,63,0
0.0032886660883240486,0.006273848861789199,0.4586464981836508,0.8246829894681271,28,32,65,62,0
0.003494287779143978,0.006128296925074946,0.4535364848820937,0.7632591286614164,24,28,63,59,0
0.004610391043872462,0.00591659901654221,0.5793855314324525,0.731892165806431,26,26,57,63,0
0.005606303660135552,0.005900372597682891,0.6636828556386396,0.7535655762001431,24,28,63,62,0
0.00570828421607426,0.005340872342045262,0.6546479047704693,0.670972128928406,20,32,58,65,0
0.005750929210304381,0.005004786313889969,0.6730064219398288,0.6480343323777485,22,32,59,69,0
0.0045030022494544995,0.004985090465544473,0.5731060607238531,0.6491870232836441,24,26,60,67,0
0.004056949326401076,0.005099310307804496,0.5017194457686514,0.6620138110811605,24,30,65,69,0
0.00429989493398352,0.005555187403439617,0.5671636783664701,0.6915144827268442,24,24,57,65,0
0.005079340911998933,0.005916756496176112,0.6091047636116026,0.7035821963634026,26,22,53,58,0
0.005261535878327364,0.006387032100281642,0.6182413923316703,0.7349862670798449,28,22,52,57,0
0.005605642541603388,0.005934407786298237,0.6630841243212893,0.671324274018037,28,22,55,56,0
0.005625410184292905,0.005425813473907325,0.6469330833438591,0.6557822326913737,24,24,53,61,0
0.00455386647963589,0.0058609142052063155,0.51664544676576,0.7371093222162541,24,30,60,55,0
0.004568005954940266,0.005345364201745454,0.5603085243557986,0.6757597348702606,22,30,55,57,0
0.004160696391084684,0.005250746555062723,0.5093661893536687,0.6838242773288733,22,28,54,55,0
0.003366105330923586,0.005225131108477973,0.45109792569177215,0.6247809013400263,20,22,58,59,0
0.0038299710923986284,0.0042380732379658816,0.4721558463632217,0.5588255389673331,18,24,57,64,0
0.003285283476256971,0.004484528294828206,0.3928108628125169,0.557645735815299,26,22,58,64,0
0.0031292821338665777,0.0047180362187819805,0.3688383302771273,0.5666781001822722,26,24,64,58,0
0.003683167137773099,0.005290365101193327,0.4331775219054994,0.5845966838621669,20,28,64,54,0
0.004936084328361588,0.00455398726470462,0.5546574825841071,0.533263911621794,26,26,59,57,1
0.004876449469737584,0.004475179468531901,0.5695559128824166,0.5294357313899839,20,30,62,59,1
0.004941332748517238,0.004376076245192038,0.5593079874544076,0.5395323331676524,20,28,65,60,1
0.004464284802397633,0.004368237457536253,0.541088983569313,0.5419543592485695,26,28,73,60,1
0.004132894183014993,0.004866844871661124,0.5664918538548872,0.5668082224783261,30,24,77,59,1
0.004697141354660376,0.004953676070825226,0.5930699782509589,0.580041921709497,28,24,67,56,1
0.004859575484286579,0.005542779127797818,0.6055407466809362,0.6171725322095376,32,26,67,53,1
0.004720106348710993,0.00581266021891795,0.6248897936357867,0.6264094365057024,30,30,59,52,1
0.004892923704939431,0.004872748707882817,0.6067698135801766,0.5619311704022437,26,26,54,53,1
0.003954451967575796,0.0036545861951491837,0.48863469509609914,0.46033687916541266,28,24,58,60,1
0.0031657644897498684,0.002951829877429696,0.3833431175882644,0.38580928559292843,26,26,57,65,1
0.0028097193037766037,0.0028003704716013326,0.3181356512493485,0.35173564267990237,28,24,58,60,1
0.0020789241199017,0.003026958644187694,0.2808242016330925,0.38475451938728605,28,20,62,59,1
0.002505851519216166,0.003802159525402712,0.32078817186007996,0.4396999276800425,26,20,66,57,1
0.002879146896004349,0.004264096424743092,0.3607494171388495,0.49474474866806395,30,22,65,56,1
0.002929651050999151,0.004373551261507064,0.3783019582045699,0.4787718309317573,34,18,69,57,1
0.0028781864659472036,0.004052567987053286,0.36607345821842874,0.46877669563058716,32,24,75,57,1
0.002768678565785667,0.0038441669191237858,0.38266126947143386,0.4635625518897905,28,30,75,56,1
0.0025553878815887214,0.0033065067013087874,0.38100796120559566,0.41488929783716516,30,32,75,58,1
0.0028153512192570706,0.0034606191944288344,0.4038806659190197,0.4228910466577684,32,26,70,63,1
0.0032893192622419757,0.0035369070214088328,0.45845329803626755,0.41663754134438763,28,20,59,59,1
0.0034776556376547975,0.0033673980332915594,0.4813624132101953,0.4089568969512657,30,22,62,63,1
0.003503851328646456,0.0035174924318436915,0.5134677452473283,0.41174813035042535,34,22,61,61,1
0.003280285781086784,0.0034545341364946606,0.4915121840655092,0.43039729424160394,32,28,70,57,1
0.002627239580709412,0.003217494777452737,0.44752756607670574,0.41032868427989116,40,28,77,57,1
0.0031222750316261478,0.0031181608143263664,0.4501463666918156,0.3898864924005276,30,30,77,58,1
0.0032808406860647763,0.0030783259199502573,0.44665802087647616,0.3805730800925962,24,28,75,62,1
0.0038971266320596792,0.003600460827048245,0.46357974345365627,0.38537512763344756,24,30,71,63,1
0.004293227811505569,0.003765517373777321,0.5070167517074722,0.4201382670179517,30,28,68,64,1
0.0049326214252864466,0.004169914119259701,0.5624716501086516,0.4690777245032875,26,30,65,62,1
0.005201710037053184,0.004620516055637165,0.6175782227317845,0.5341964885855691,30,32,69,60,1
0.005051667069130619,0.0044159149568491225,0.634126053103755,0.5350910894263732,30,30,67,65,1
0.004784174628727654,0.0043061772003056475,0.6458453076674279,0.54624029702848,34,32,67,65,1
0.005006852003029459,0.004138888387031377,0.6588996114732854,0.5236923380815972,32,32,63,65,1
0.004828641702440351,0.004064778475792319,0.6530794482683397,0.4890608467898603,30,34,65,67,1
0.005071243444522954,0.004015597503717255,0.6818905635456464,0.5165151010829063,28,30,61,61,1
0.005351528804683523,0.003982614798032089,0.6980061087446302,0.48079953970529754,32,34,61,69,1
0.005173237990469378,0.004137786898789697,0.6363744038526614,0.47668497778877594,28,30,61,67,1
0.00566926140925299,0.003637233787457841,0.6772129753277261,0.44336426610261853,30,34,61,67,1
0.005322877823506243,0.0033474939253017593,0.652168509989431,0.4007929167733519,30,28,64,70,1
0.005040230361237369,0.003309908241872191,0.6189666800768622,0.3824300534759371,24,26,65,60,1
0.00502202279582414,0.0033426171659265806,0.5938611406334549,0.3695218123728696,24,24,63,60,1
0.004685724476521854,0.0031177200982083282,0.5455492305988512,0.3641580356372339,20,28,68,62,1
0.005194076760311601,0.0028144744713056637,0.5538534057980101,0.3566074425996754,24,30,64,66,1
0.004554749511828285,0.0030248932548137147,0.5054327878636866,0.3942115545026044,32,28,75,63,1
0.005034343917944923,0.0030508946102900496,0.5338893271282449,0.39604638079333465,24,26,74,60,1
0.004654491815000242,0.003302088529733883,0.5549456702757458,0.4143932785373318,32,28,64,64,1
0.004325387997223072,0.0036888903084612663,0.5354428239344301,0.4612357047071464,32,26,71,62,1
0.004676123942220738,0.003646556006680071,0.5648856771584986,0.4499199041166287,32,28,66,61,1
0.005893726945168308,0.0012220928601690152,0.8635711902433651,0.19445942622427584,26,34,83,83,2
0.005685463583272533,0.0010790850339820043,0.8617283455757685,0.1941485253646798,30,48,78,90,2
0.00555648802585219,0.0011169714189870645,0.8218924201681072,0.19021968420900018,30,42,83,83,2
0.004931325057285647,0.0012369274913578727,0.795981872384705,0.19033485782665757,32,41,84,81,2
0.005508566952438613,0.0011205702735833515,0.8868359876417793,0.17937199954523395,34,40,83,83,2
0.0053315664323362625,0.0012064151455035547,0.8786190065039049,0.1778573016951033,34,33,92,81,2
0.0057564342482795275,0.0013041774035565084,0.9395898990026283,0.19883817709806167,36,30,88,85,2
0.006138685474530503,0.0012952033210232932,0.9566525933720129,0.19627017699768531,38,30,76,88,2
0.005732182675032959,0.0013350371554653026,0.8867663286094059,0.2021356779778042,38,28,80,87,2
0.004597686872727952,0.0011493669268849756,0.6991685342879237,0.1593933758236681,32,32,70,73,2
0.0031603228567885417,0.0008287151477046116,0.4380237011182364,0.1063063525967224,20,26,65,59,2
0.0016802015666465583,0.0005874533496601726,0.2567238408379139,0.06867191428469392,12,18,65,59,2
0.00045836380804002713,0.00031166172900624087,0.045737972577692194,0.027647523849302184,14,18,54,55,2
0.0004783815309383977,0.00031870812017761483,0.05481985852680471,0.03303374120710466,16,22,58,60,2
0.0006279140746647247,0.0003591407543515125,0.072139691346415,0.03790179860778341,22,20,62,61,2
0.0007301351300237382,0.00044941968051687695,0.08779294308731449,0.045806230255312434,20,22,64,58,2
0.001290059327765919,0.0004985020804378684,0.16532388186142655,0.06321945876635221,22,28,67,59,2
0.0015594448318715646,0.0005630965168396534,0.20343759110946283,0.0741503533152189,24,34,68,68,2
0.002237982157231242,0.0006326002028890596,0.31136099283079927,0.09173186717835166,26,34,63,74,2
0.0033672484660510885,0.0006982896142509574,0.47126978233526423,0.11772014509713852,26,30,66,79,2
0.0037558091669892073,0.0009571576971933976,0.578190395141341,0.14612961144340628,24,26,65,78,2
0.00471855058811655,0.0009792073941319959,0.7151189530999442,0.1589377873802096,30,34,71,82,2
0.006054373162084213,0.0009949471113503928,0.8599778696707931,0.17338642621813455,30,46,75,83,2
0.006224142899925476,0.001090445225074438,0.9142615681889651,0.19488992140740174,28,36,71,85,2
0.006595680758835204,0.0010880187234063403,1.0244720014792716,0.19270977716167903,30,36,73,84,2
0.006319934842228492,0.0011325635652312308,1.0368934047343266,0.20949834493871064,32,38,75,79,2
0.006218277947691676,0.0012830873233879753,1.0185859194376583,0.21100659507306,36,38,77,78,2
0.006295152832264237,0.001142928090204253,1.037119616037103,0.19367912812939772,38,42,76,82,2
0.005852512775038978,0.0010917897393411214,0.9482803827760706,0.19445204007949254,38,44,74,85,2
0.00595862279375331,0.0010922225750867912,0.9367344755714999,0.1942247470541997,34,36,73,84,2
0.005240114679807128,0.0011213345310376727,0.815621264243283,0.20556485306417466,34,38,75,89,2
0.005278486385529618,0.001152662483441494,0.7840290246666543,0.20862372740971696,28,40,81,82,2
0.005232795926740601,0.001161108058351503,0.8146427083977266,0.20429828973776196,30,44,86,82,2
0.005693714033938025,0.0011366709209063611,0.9315138617068371,0.20692788647812027,34,36,82,81,2
0.006554515242996386,0.0010920475743524376,0.9997415481570957,0.19421680430536847,32,38,75,78,2
0.00677627098806839,0.0010678341024587651,0.998350324878393,0.19338077024166617,28,44,73,83,2
0.006709008233578131,0.0010165684791569021,1.0311642389368876,0.18792212684631235,30,42,65,84,2
0.006354469392612487,0.0010803334446020476,0.9668719903736979,0.18726336469068144,24,42,67,85,2
0.006274315620345641,0.001099848291661345,0.9577275439132995,0.1836044145475497,28,42,72,87,2
0.0058016287067378354,0.001091818909142487,0.9134428716086189,0.1738075036898564,24,46,75,85,2
0.005451493050848889,0.0010069024017260269,0.8582424448919239,0.18529889379838102,24,42,74,86,2
0.005497684431144994,0.0010077246484354128,0.8218765467464918,0.18048235685948816,30,46,71,86,2
0.004597342908980547,0.0009305546685494237,0.7327460931360159,0.1732905345683724,30,38,79,84,2
0.0046344868419101164,0.0010285285739683975,0.7260770501659529,0.19082848960526458,30,50,85,79,2
0.004372829424955703,0.0009157193547423153,0.6756581822170727,0.1715616618481293,32,48,86,81,2
0.0030609604236439642,0.0009015324687181774,0.5611818986465635,0.16801053801164423,32,46,91,81,2
0.003226312758987424,0.0009196516887170865,0.5477681864985396,0.1708758281466712,26,48,82,88,2
0.002638371065391486,0.0008155600245979344,0.4598558611317551,0.1476686930790942,30,48,78,88,2
0.0028092483679848412,0.000868587179044208,0.4335133538235991,0.14300199336422523,26,40,79,95,2
0.0010609600004065885,0.0031788586300527206,0.17834720431990347,0.4676742032050887,42,34,79,68,3
0.0010652392720841744,0.0032187265782478614,0.18734043866559735,0.489087884949683,46,34,81,70,3
0.001081809832889669,0.00356905800118188,0.17757278432548004,0.5256742402606478,48,34,81,74,3
0.0011119740029631694,0.003588288915139733,0.18119574822526502,0.5357409585786415,42,34,77,72,3
0.0010824562781418313,0.003837824758167063,0.167152864645725,0.5574381614081431,40,32,76,74,3
0.001002052113088505,0.003826303247621343,0.15286992381910985,0.5356899865223943,38,34,75,76,3
0.0009302468056753956,0.003489762154560336,0.15705150537858784,0.5325140215280589,30,40,78,70,3
0.00092043743179922,0.003473351648005434,0.15158017299898463,0.5357055296253942,30,38,84,69,3
0.0008975133447252834,0.003150776786251848,0.15106372252565323,0.504647409663421,34,38,81,69,3
0.0009780766936872212,0.0034883554681284946,0.15803742418800945,0.5044986825763156,32,36,84,63,3
0.0010933585294420358,0.0032077114593344787,0.16008132756730753,0.4675147939274433,32,34,84,64,3
0.0011845554614432943,0.003542571627461302,0.16487456173183754,0.4783392132092644,28,34,79,64,3
0.0011341945023049167,0.0036411267625125294,0.16583704661637783,0.46112851109673103,38,30,77,72,3
0.0012216382384894415,0.0035664749421004355,0.18283258286265272,0.5079012126291771,38,32,73,75,3
0.0017190654438005856,0.0034573822779639524,0.21865622022049297,0.5404354418425336,29,34,74,77,3
0.0015580101039460944,0.003650079640582492,0.22056486686043725,0.578678490092018,26,38,82,77,3
0.0016578758740219421,0.00410929574709135,0.23038327647507384,0.6089800398692353,20,34,81,82,3
0.0016190169877356721,0.004847633881753164,0.23185155105383454,0.658171122733801,26,28,75,80,3
0.001328686750315325,0.005697391502938453,0.2081681968058245,0.7255686427059203,32,24,76,78,3
0.001317544528297131,0.00586072404687136,0.20410820914144365,0.717717788065566,36,30,72,79,3
0.0010874890165424008,0.007014724094449935,0.17160448167127032,0.8739196427283499,42,26,75,71,3
0.001057528111145247,0.00671368037546758,0.1630105407784294,0.9209609160517406,36,34,79,70,3
0.0009440538343248365,0.006478091708522089,0.14449870913318305,0.8710350808051004,32,38,79,65,3
0.0009325177801890628,0.006813908687138925,0.13382986679070405,0.8868247594593789,34,36,80,63,3
0.0009198448028330976,0.005999277612400105,0.14237905614066484,0.7917724511331813,38,34,80,68,3
0.0008843058159036408,0.005330249724896946,0.13899519708996239,0.706108395596736,44,30,81,71,3
0.0009150178181615139,0.005270308793199432,0.14615966111931553,0.7304893237361149,46,34,84,70,3
0.0009401045084856213,0.004689880508798019,0.1509702458182415,0.7160847764980587,42,30,86,78,3
0.0010110726620561462,0.004089188582978618,0.15604472141376538,0.6453151996005146,42,38,75,78,3
0.0008967112468372971,0.005078138680045941,0.14618676007665282,0.6939459796953399,36,28,80,67,3
0.0009189708905445336,0.0046911807885588715,0.1314576308264641,0.6840647903877026,32,26,72,71,3
0.0009319290785289394,0.005577934822950583,0.13057739945918742,0.734608322265869,28,24,81,66,3
0.0007924181968732198,0.005183045072887629,0.12518232690027076,0.7396464253375514,38,26,83,67,3
0.0009208951092394001,0.004846690315454604,0.13584300892886203,0.6745260457343842,28,24,77,69,3
0.0008670719630605528,0.004676763629080729,0.1326496938763723,0.6564705861372656,34,32,80,72,3
0.0008334039258810192,0.0041176703999354185,0.13185597706176477,0.5936061439346464,28,36,78,75,3
0.0008375417430455183,0.004207719921234085,0.1285107061517259,0.5905767697067295,28,38,81,76,3
0.000754320925531473,0.004359064770897888,0.12604805443728653,0.605303775352574,36,32,76,72,3
0.0008103254938691055,0.0044305234467093965,0.13548215673012673,0.6159263327731221,42,40,76,72,3
0.0007340632995389612,0.003932161998541372,0.12894495071176268,0.6057161191909047,38,44,79,76,3
0.0006934977652999834,0.004198418890058619,0.12254068896086692,0.6456865061750948,36,38,79,77,3
0.0006934455202290047,0.004069683457407527,0.1221295580494815,0.6327413876906819,38,38,76,81,3
0.00068153494759517,0.004168262888665878,0.11855116257922739,0.6414209351557038,42,42,76,81,3
0.0006996783678023587,0.004422939738508327,0.12401992448148198,0.6628505059381832,44,36,78,74,3
0.0007146246879434026,0.004600288727669977,0.1262026974722045,0.6714826950507923,48,36,81,68,3
0.0007150377560615865,0.004543820814895904,0.1241008071320065,0.6666002899757907,50,32,79,65,3
0.0007239597142554274,0.004413772542292308,0.12300343742983422,0.6235596713350512,46,36,78,62,3
0.0006015978551232988,0.004169718628257105,0.10856788998975395,0.5993870808841469,44,36,84,64,3
0.0005645108711379785,0.003521724896660278,0.09789710186978105,0.5219440478606889,42,34,83,69,3
0.000406349739636385,0.0005953853171575505,0.04500802771435376,0.049865973926585656,20,22,59,61,4
0.0003073691809942418,0.0005682319135603664,0.032517019016115714,0.04670275228391266,24,17,55,58,4
0.00026406658659008263,0.0005284433699080786,0.029967951086497198,0.04411928836252702,22,18,63,51,4
0.0002115417213089059,0.0005143064439075135,0.02107412573534254,0.04179223622548874,23,15,63,60,4
0.00017149179573858965,0.0005260820813375847,0.01764525574056099,0.03757428403103456,16,20,60,53,4
0.0001944832112543663,0.0004971505479006838,0.017288496316884117,0.0360889315573452,15,19,63,51,4
0.00019136228399893823,0.0004995707509053175,0.016873693826910615,0.03511465191893216,14,20,64,53,4
0.00016596942310555726,0.0005049177258494958,0.01603617141889418,0.03415231381206467,19,19,65,52,4
0.00015538504097302574,0.000502958973621556,0.016234305075739613,0.03629470292799824,20,18,67,47,4
0.0001305521089462522,0.0005088791934009044,0.013562470582193328,0.03542706800140582,27,17,66,51,4
0.00014264708113110583,0.00046654976256273027,0.015550290063000896,0.032979961533302925,26,20,66,57,4
0.0001546547078941907,0.0004847598893647723,0.015410153667382846,0.032069147331684186,22,20,59,48,4
0.00016228533573628737,0.000511934938592798,0.01578880859969358,0.03226666770518726,22,16,69,49,4
0.0001711016481441302,0.0005327770759550439,0.017079534767103045,0.034611457148660055,22,18,64,53,4
0.00016875628852215763,0.0005092876355799566,0.01810857487606922,0.035139225079661045,18,20,62,51,4
0.00016626524119502123,0.0005197384627678177,0.017612103153434602,0.0339395656943464,19,20,64,47,4
0.00017444510116425185,0.0005341730986782008,0.01781848500281198,0.03526961936678534,18,18,68,44,4
0.0001834499616836466,0.0005072730500541026,0.018408380617882834,0.035165148257882105,16,20,62,44,4
0.00033738606092494614,0.0007971383385914255,0.027435318647889395,0.06108583858760219,14,22,61,48,4
0.0006699815809354945,0.0017860429290027782,0.04597740688978903,0.11468177409152813,11,5,74,65,4
0.0007215623106229074,0.00193069723981241,0.04924383891056669,0.11828787884824701,14,12,65,53,4
0.0006662396057196551,0.0017820069544344352,0.04647736950665873,0.11186340873070877,14,10,52,54,4
0.0005914258542471846,0.0015245571605316073,0.039065843925208794,0.0951415285208454,8,6,55,45,4
0.0002072605394163711,0.0003860232034778583,0.018933720241499127,0.03311219269032829,12,16,56,50,4
0.00016958711448889895,0.0003508528648138837,0.014673656899306175,0.033178932083937185,14,25,60,48,4
0.0001158282037855063,0.0003494261336997555,0.013472606517170992,0.03155586642225351,20,24,62,46,4
0.00010651845205925456,0.00034131665268999004,0.011858084519713413,0.027516476526218546,18,21,70,48,4
9.810122235643265e-05,0.0003579043671442868,0.012074170922455225,0.02810253286842793,26,20,76,53,4
8.362869800675552e-05,0.000362379805022448,0.010894140543546598,0.026356136773428747,24,18,78,56,4
6.517961408836121e-05,0.0003921949713168069,0.008846842551744461,0.027747735532570015,24,18,72,44,4
6.222420832908764e-05,0.00040392754318789337,0.008557624038647077,0.029020885614143097,29,19,72,47,4
5.4240861075263185e-05,0.00041326466051507947,0.006911233866166856,0.03184217550945062,28,18,75,42,4
5.6166580879015784e-05,0.00042845280926356047,0.00608892078011578,0.032656637436281076,24,20,77,42,4
4.907755969367457e-05,0.0003942366511865865,0.00612610420751051,0.03153780166417234,26,16,77,50,4
4.442545809616414e-05,0.0004033947742386795,0.005909448303364143,0.030844620939875615,34,24,73,51,4
4.5622737870514036e-05,0.0003432772983699492,0.006062944811554853,0.028486430564204274,30,20,75,54,4
4.536476467453649e-05,0.0003642062394568968,0.006162525399234233,0.03019344499617816,32,20,82,56,4
4.7290475314023996e-05,0.0003722378872914129,0.0063486033525693925,0.029354627481890203,30,16,84,62,4
5.2515009781641684e-05,0.00036640376601586484,0.006411821885434094,0.030686883491010036,26,26,93,60,4
5.26090304991933e-05,0.0003864652936076025,0.006603645677993807,0.030634810856191394,26,22,81,65,4
6.457226540152208e-05,0.0003300354633568045,0.008737737407156665,0.028137349433280688,28,25,74,56,4
6.27541442972413e-05,0.0003725483490654319,0.008832462166235988,0.031117422107152435,28,18,73,52,4
6.871814868847477e-05,0.00030513936908522425,0.009221205203372105,0.028758730678599045,28,24,77,52,4
7.668140505580416e-05,0.0003677274967061487,0.009316941734028599,0.03239109857602354,26,24,78,48,4
5.986001727747765e-05,0.00037022157810617296,0.007054667978840188,0.03294912807542016,32,22,85,44,4
7.043026675712773e-05,0.00034505406677163224,0.008442946177714829,0.030112776435684715,26,20,86,53,4
7.130009832615954e-05,0.00034109273241142505,0.008579708483492076,0.030689392309018255,22,18,79,58,4
7.321042644555263e-05,0.00030318764674031295,0.009243939475687954,0.02602714647534232,20,16,74,58,4
7.604696632620528e-05,0.0003088439785862332,0.010194742986541733,0.02674081667313913,24,16,76,70,4
0.003930915654308537,0.0053013960562363115,0.5239428765345024,0.7135462152911599,28,30,68,62,0
0.0036046397810094526,0.0055532572738555275,0.4831932186860057,0.7537070262526103,28,30,62,60,0
0.0036845646829218874,0.005338004014993499,0.49212084299258413,0.6816530649086784,28,32,62,61,0
0.0033224155332806193,0.005547212775687645,0.4529605224424059,0.750032269571755,34,28,66,67,0
0.003214226482672623,0.005279150231818547,0.4386171463016583,0.7508394276571065,28,30,68,68,0
0.003156115316032292,0.004565326428735994,0.44379205865545374,0.7094077611019761,28,36,69,74,0
0.0035456250529051782,0.004864118034095734,0.4603179620338078,0.7340798557672011,26,40,70,70,0
0.003395220234952766,0.0059689822971426025,0.4441049646076543,0.7933582853881912,26,32,67,66,0
0.0034289563894362145,0.006618317864147449,0.4275182616610942,0.8653014566411775,24,32,70,63,0
0.0033712206985153253,0.006319398194401714,0.4420526892075911,0.8312363124439295,26,30,67,63,0
0.0029327035357669634,0.0062652211902955845,0.3993316693923257,0.8302712794894039,24,26,69,64,0
0.0030314639638841707,0.0052482577966223645,0.4006132361539115,0.755030522174445,24,32,70,71,0
0.002902285662220347,0.0048429664589062695,0.3983147999779029,0.7117496097266274,24,38,69,69,0
0.002941609202648588,0.005358797007670007,0.40775935024423965,0.7673521330982134,24,36,71,64,0
0.0028774148678288795,0.004677674348547572,0.4173246519508503,0.6777793046305056,26,38,71,68,0
0.002804556958119621,0.004592489336344616,0.38986359740324555,0.6196173518807897,30,38,66,65,0
0.0027711460181217475,0.004354832636136701,0.38646630615802946,0.5863983704152029,34,32,68,67,0
0.003211222220515248,0.003786565283877298,0.4154737363707903,0.5433464315539684,26,32,66,67,0
0.0034073265907012527,0.004387514589740598,0.4325323691328979,0.6188119695734713,26,30,67,66,0
0.0036735108017067674,0.004489822279158463,0.4677428209256954,0.6545608004526696,22,26,62,64,0
0.003845273886137961,0.00482129411080346,0.5031229861084362,0.6617847637671802,30,28,59,62,0
0.0032984328815092133,0.005049795114332466,0.4453215860056359,0.6594554365916713,28,28,58,59,0
0.0034824059881600256,0.0045896984505731046,0.4594053532457926,0.6004049631561377,28,26,60,63,0
0.003372733294115847,0.0044678418713401495,0.4490205108676348,0.590861556282031,28,24,64,65,0
0.0038082594896516305,0.003902912614632851,0.4778296370663937,0.4876891655959841,24,28,57,56,1
0.0038489642069360363,0.0041053665478856536,0.5084992162996644,0.5251394139223772,26,28,59,56,1
0.003904200782520678,0.003821158708179094,0.5358659466051388,0.5115801802605002,32,34,64,58,1
0.004400254784292531,0.003866830001878119,0.6292704081749252,0.5148274360057582,28,26,66,62,1
0.004201218868719752,0.0035888087437151656,0.62403432436024,0.45469755885792085,32,30,67,69,1
0.004002879813328577,0.0035983315480373384,0.6030200442509219,0.4530800464296965,32,30,72,73,1
0.0034968667303716633,0.004220438677819904,0.548890523230263,0.4540857429044099,36,26,73,65,1
0.0035636286443584747,0.00437695956736875,0.537716038117728,0.4923636116063784,40,28,73,57,1
0.0035339792484979054,0.0041209656870910775,0.5443010645476537,0.4862833439796036,34,26,70,60,1
0.003806517161287312,0.0039614173866575845,0.5633674123330761,0.44934850380363744,32,28,66,58,1
0.004087723942390219,0.0033122531014029583,0.5879498248625445,0.4355056206370505,32,36,69,63,1
0.004395441384421051,0.0028897159583958793,0.5719669663204685,0.3880231540382342,32,40,65,68,1
0.004595301468214034,0.002960805335098689,0.5659921350843095,0.3946204669802847,30,34,66,64,1
0.0040597117233493836,0.003455298083709075,0.5427107734514042,0.42751752508964797,34,30,67,65,1
0.004627101961006966,0.0040298223643978085,0.5691546540827741,0.4497208953482118,24,32,64,62,1
0.00495077582361095,0.004171268807691505,0.5488710132263084,0.47287763368188157,28,28,60,54,1
0.004380568182868377,0.004167938881104631,0.5543231024595033,0.47375080528747915,28,24,65,60,1
0.0050599822009948095,0.0036683883809092003,0.5916059657065015,0.4361700826753191,26,22,62,63,1
0.004827719350512654,0.003476292461570099,0.5485655789527105,0.4110658665664119,30,24,69,69,1
0.004477441557072605,0.003519182536297352,0.5252593715209233,0.4105898036208488,28,26,72,67,1
0.004714270417742458,0.0035931410584102326,0.5363909705659831,0.3806505986443887,26,26,69,68,1
0.004224088479944851,0.0037802318651869084,0.5056657910296848,0.42563133818554566,30,24,72,67,1
0.004583728501384761,0.004172163715016858,0.5497402154968671,0.46373829205984873,28,24,67,63,1
0.005044964967309416,0.0040359297154652415,0.5866722218276949,0.4723052438110195,24,24,64,66,1
0.002748610957202128,0.0008704197454281187,0.31643981574374935,0.11622706021650442,22,26,64,80,2
0.002870387841962169,0.0009179426044828077,0.3380808851281446,0.12477394292811882,28,30,61,83,2
0.0031451915036283923,0.0009689071062902242,0.376907124329137,0.1314013630233022,28,32,68,84,2
0.0031769696488031635,0.0009004301416970519,0.4195786899687893,0.12882495707406919,30,28,70,82,2
0.0038123269414452165,0.0008683487784354028,0.5297643827998476,0.14109135996484481,22,36,64,85,2
0.00471453363843124,0.0008090471931088947,0.6931408053666905,0.14734641772959073,26,34,63,85,2
0.0046026456330208795,0.0008682072751737065,0.7163476843576048,0.15063856304142817,36,40,66,87,2
0.005389489954894505,0.0010044769456080604,0.8193821953321061,0.18211295565801952,24,34,63,84,2
0.0050716627415534725,0.0010447236537202403,0.7724638275575891,0.17754022720805454,32,36,73,87,2
0.004650181484550407,0.0011209418115572824,0.7275397429401623,0.18178151656991037,34,42,76,81,2
0.00552559141468914,0.0012020152245227854,0.8477664763983253,0.19497523336297728,38,40,75,81,2
0.0050327864541036185,0.0012825699647232077,0.8221765671457144,0.189609650822547,30,36,74,81,2
0.005713394528704181,0.0011883127729320334,0.9469564907946862,0.19515055888383095,36,38,68,85,2
0.005789857769752733,0.0012290663784705965,0.9543202326829793,0.19733426962843187,36,34,68,93,2
0.00594459124742696,0.0011249901408048163,0.9768264771853153,0.20122214625274723,38,36,69,94,2
0.0060864023171761485,0.001288210487800106,1.0428043752365765,0.21442308244871525,36,34,75,93,2
0.006166011816721092,0.0011433288371838076,1.0940678010403768,0.21883970626329352,38,42,73,93,2
0.006606047220270578,0.0012322365838181577,1.139351052484237,0.2200655549492217,34,48,72,85,2
0.006451295506781191,0.0011941031599423581,1.0843745167174619,0.21377235442354708,30,46,76,86,2
0.006355456294104281,0.001305044582532375,1.0113940981318643,0.2258525677777048,28,48,78,86,2
0.006219415829841884,0.0014443097748393196,0.9876265626690393,0.23721636357053477,30,42,80,83,2
0.006327232697033545,0.0015334212004730898,0.9667650324188368,0.24384488916071914,32,34,79,84,2
0.007238167288215743,0.0013961615798087782,0.96038853383646,0.23689122034727525,26,30,74,83,2
0.006816682527713297,0.0012751796096379762,0.9565284407328211,0.20488423287234075,28,38,76,85,2
0.0008464852968497768,0.004136857003413303,0.13099841514553215,0.6219659354166769,38,40,80,66,3
0.0008443659206147477,0.004802137837712835,0.13738854575653303,0.6742014694458552,38,36,84,65,3
0.0009533505945865995,0.0049771424848351516,0.1448897383842234,0.6750711290928514,36,38,78,65,3
0.0009140898606907893,0.004578269822253189,0.1480008946395765,0.6715472455404782,34,34,83,65,3
0.0008231351882462798,0.0047887955341123535,0.13817653605894467,0.6935849010131372,34,30,85,74,3
0.0008318036527490997,0.004434078012161771,0.14385963594295015,0.6854611150722197,36,32,79,76,3
0.0007529067457318157,0.005157386692888687,0.13277936153412492,0.7210676078085068,36,30,75,75,3
0.0007366508499283215,0.005071101684349638,0.12616478629376637,0.7169387431766046,34,32,71,68,3
0.0007980355476496953,0.004875850338852528,0.13313752660836276,0.6667300735499858,34,34,74,70,3
0.0007377095096169388,0.004286389167011117,0.12353516047304473,0.6536127997406159,38,32,70,73,3
0.0007450334771090329,0.004365268893565979,0.12806482822375279,0.627971732494113,32,34,79,76,3
0.000829439708759976,0.004018360358819456,0.1334141796462596,0.5726457238579672,34,26,76,79,3
0.0009159825367554678,0.004218308393452158,0.1338629556137939,0.5747380841530245,30,26,70,79,3
0.0010011814927100337,0.004313618899403511,0.14215600420866553,0.5850081424488226,32,28,71,78,3
0.001167815783438293,0.004247499741866509,0.1670360367551943,0.5825149432434673,28,30,73,72,3
0.0011764679746943591,0.004163194172251627,0.16280693253963535,0.6327503741543141,34,32,70,71,3
0.0011447721039422045,0.004464234822113998,0.17197639149344865,0.6851523131545632,34,38,73,67,3
0.0012461152532270182,0.0038151629785658694,0.19185759607503025,0.612814058339333,34,38,76,65,3
0.0012166736906698552,0.0038571539490197056,0.17551286837329036,0.6252626190151505,30,34,78,67,3
0.0014192350045056875,0.0036409046060981885,0.20166762570733868,0.6116482974123937,34,38,76,73,3
0.0013768249469271413,0.0032507212417708688,0.18807767366052544,0.523479416506089,34,38,77,74,3
0.0011486829016439438,0.0032729475756446214,0.1738699801105548,0.5224549396233146,30,36,77,73,3
0.0010869663717707602,0.0029654579605767517,0.17161031245471278,0.47338913716706327,34,38,77,77,3
0.0009607620625151206,0.002968918889628777,0.1626999319329771,0.44525267787805695,38,38,77,72,3
0.0005975629810472065,0.0006810086655796404,0.06719791482920795,0.057565573546319776,18,18,60,61,4
0.00040713222800406576,0.0006891025138007381,0.04641691286534641,0.06350483435814382,20,19,67,63,4
0.000452813032488387,0.000646199762455004,0.04547994514524109,0.06188330998093708,14,28,68,65,4
0.0005594859653933506,0.0006294487806082479,0.048383439897070016,0.06252724310010185,14,25,61,64,4
0.0006082706185745804,0.0006878459862754634,0.0491304123824675,0.06036220409423463,12,20,61,67,4
0.0006760187701520149,0.0006281285138585159,0.0504762446171542,0.055075835714684565,14,21,56,58,4
0.0005135516061843043,0.0006216212739109271,0.04744339206544328,0.05502071000886368,14,20,56,56,4
0.0005217270665073446,0.0005893390587016752,0.04898688193421886,0.05455464875870844,16,21,47,56,4
0.00040395782532735955,0.0005509074006838292,0.04266646099626074,0.056746231214610185,18,28,56,55,4
0.0004227041171942002,0.0006240870609064933,0.04521272914608738,0.05996472885727639,18,21,62,55,4
0.0007879191481932846,0.0008356017299211505,0.06187365191632476,0.07476443284204275,18,22,62,45,4
0.0007883267200457279,0.0011247242332104333,0.06017959646934579,0.09372835556114865,14,18,59,47,4
0.0013764499135715672,0.0016026334996155664,0.1058451043753187,0.12513793844978463,14,14,61,43,4
0.001447313545560103,0.0014419896040850943,0.1254263943979971,0.11899346645940302,12,18,53,50,4
0.0011080233222635289,0.0014486730115478908,0.11565607871999045,0.13260028861086492,12,16,47,65,4
0.0012819196025388377,0.0010201281433254552,0.14727955739339635,0.09882231538990212,14,26,51,66,4
0.0009655736052415184,0.0009551244147188763,0.10369087217018584,0.10036397712824817,14,24,59,61,4
0.0007747696180624911,0.0009626646679478859,0.08734026710505369,0.10170687109811888,14,22,60,58,4
0.0007459811531653138,0.0009060391672807646,0.08927491462984065,0.08525095943642007,14,22,60,63,4
0.000586712379092514,0.000959146082531222,0.06677863151725033,0.09232251141589796,24,28,58,57,4
0.0006151320930690358,0.0009048347506939236,0.06778559308286333,0.08196770960039396,24,24,59,64,4
0.0006588389204158014,0.0007497881655336839,0.07404457216530938,0.07509310412559789,20,22,57,64,4
0.000559729665539271,0.0006328154892652522,0.06305231293952158,0.06297136185163794,16,20,57,67,4
0.00042704704966159467,0.0005593145367729942,0.04920829668745567,0.05634574233495709,18,27,59,68,4
