f1ch1,f1ch2,f2ch1,f2ch2,f3ch1,f3ch2,f4ch1,f4ch2,Category
0.0004538951284100195,0.0016851612477690972,0.045158856114052105,0.1664032657577227,22,18,68,70,0
0.0007051927438051545,0.002401668702086922,0.06957070401146949,0.2278906765788929,12,20,65,60,0
0.001103116462378819,0.003024316216224067,0.09979504933274934,0.292227109210583,10,22,66,65,0
0.001304601966806111,0.003951831990311622,0.12336046841744544,0.34299238773273116,18,20,63,63,0
0.0016791668202384572,0.004009539875396694,0.14909205173483756,0.35849718106336553,20,18,61,58,0
0.0018009447045820462,0.004152274846020202,0.16613624877185748,0.3643231288147096,20,20,58,57,0
0.0019114494683177177,0.0038091428759746693,0.17970929379409456,0.34612931715972867,20,18,56,55,0
0.0019669899760831754,0.0034658449841999794,0.18602323091359152,0.3280252321907121,18,20,60,63,0
0.001880543291745609,0.00405076372968678,0.1857466197135415,0.3487570676300933,22,20,51,61,0
0.001994763363286166,0.0040894347013488855,0.2026555766854637,0.3382825571820487,22,20,52,65,0
0.00207749184722484,0.0034799424317334903,0.20994151626004853,0.32067887778970383,26,24,49,52,0
0.0021012807276194517,0.003172094022317268,0.2125133308356704,0.3156243412095196,30,24,55,55,0
0.0021443130683248034,0.0032282987064635033,0.20608346392585378,0.35493816688797897,32,28,55,52,0
0.0020972633715184226,0.0030918141684468533,0.1855154356015511,0.3286384578164738,24,26,56,54,0
0.0016999054788125025,0.003053786483672633,0.1766340927707821,0.34170181118804493,30,28,65,52,0
0.001885041205876171,0.0029944062336533283,0.18880150819588898,0.3325941303064094,28,30,63,61,0
0.0018596160832327429,0.003326771598983744,0.1962715504275616,0.31005059865153434,24,18,61,65,0
0.0020067464223355773,0.0032034953661493433,0.2085461993172147,0.32008221356744676,26,20,55,63,0
0.0018058516051892043,0.003458393807619262,0.19447781182768317,0.3190731331164996,24,14,55,64,0
0.0014363270711686101,0.003776055364862865,0.1719106413203616,0.32857922916770477,30,24,59,59,0
0.0013202522520057195,0.0031562071898144283,0.15414302740976124,0.30543552980909516,26,20,61,64,0
0.00124422676755142,0.00337820257141223,0.1443350190238574,0.3111427743115314,30,18,63,66,0
0.0012965753827391567,0.0029476354448690566,0.14858518276852445,0.30216715360423974,30,26,64,69,0
0.0014145540114806176,0.0030408028126481723,0.156713650710973,0.3098057153364123,28,24,67,65,0
0.0014939596710401009,0.0029926639797498685,0.16786182986708015,0.29405868190184814,22,22,73,56,0
0.0014479984703817325,0.002961670357761764,0.16437678828489596,0.2976239574253646,28,28,71,55,0
0.001445740133556366,0.0032122472174415362,0.15525316953786325,0.28490251765579244,24,24,72,51,0
0.001274908706025268,0.0031021340774493324,0.15111191979065522,0.2810565627426523,26,22,66,52,0
0.0012834785786146805,0.003553362502345112,0.15508966229625648,0.30425869558323637,30,22,61,46,0
0.0013325925642560577,0.002873911998864392,0.15899276015899155,0.2596470199431993,24,20,64,49,0
0.0013343668703316863,0.002884040163471808,0.16440866548909147,0.2456826866462122,30,16,58,53,0
0.0013184442550882858,0.002301838539379322,0.1573874274602062,0.24062139621002315,28,30,59,58,0
0.0011740050672409805,0.00198207283623885,0.15126116301733686,0.23882797627751878,34,30,64,60,0
0.0011989930298103768,0.0020971848068081613,0.14838042162410095,0.2630199714593903,32,32,61,64,0
0.0010961995947782494,0.002095084696430051,0.13749891453966023,0.25309704797493754,36,26,69,67,0
0.0013688152442046756,0.002107027263300619,0.13180873874250526,0.2508568704273971,18,26,71,64,0
0.0015646325166240392,0.002098962285624185,0.1432836729053068,0.22400473340017293,28,28,65,62,0
0.0015563011233859553,0.0020470967795967244,0.14066617509925894,0.22437314092828856,18,22,64,52,0
0.0016470303347418057,0.0021223245688554958,0.15412551079786616,0.23403867435446377,16,24,62,55,0
0.0025271430892887807,0.0031492838897195733,0.24289500581412368,0.27747058054257717,16,18,46,63,0
0.003271272832981123,0.0038692359562292667,0.27263083102465485,0.3244966857015138,16,16,54,58,0
0.003867832547432869,0.004211743236181035,0.30782272443232783,0.3548730236104982,16,16,54,51,0
0.0047137853431402695,0.006125834831816783,0.3370236997856127,0.4550788302361499,18,18,47,41,0
0.003263520845303197,0.005945207193880828,0.27495596613264117,0.4502153976054523,16,18,55,46,0
0.0027853618539800044,0.005978879211096487,0.2399909148863844,0.4399676168680445,20,14,55,49,0
0.002541618845154057,0.005871343350798008,0.21908933644781725,0.4326923381303446,22,14,58,49,0
0.002442407349736175,0.004476662326225217,0.21586013413411276,0.37167763080149696,24,16,60,55,0
0.0034119761150400397,0.005471942927503495,0.2395418025623403,0.42761082353366836,20,14,55,45,0
0.004098760760776866,0.004571012571193148,0.40471094812851677,0.41448976540295956,18,20,49,58,1
0.006058251088490916,0.005944609235992042,0.6425735256610994,0.5127382907100996,18,16,53,49,1
0.008042054526533065,0.006197096899864768,0.8195299175622003,0.5283231182777243,26,16,50,50,1
0.00841992878235601,0.006622007410352844,0.874574810176736,0.5165321086437723,24,18,47,46,1
0.01022486256794213,0.005272657542270341,0.9304354885493392,0.4786641593245739,24,22,40,60,1
0.008776020571307058,0.005374164002969547,0.8192859791919265,0.4797722597126609,22,20,42,54,1
0.008048666236666002,0.005488145619497187,0.7424726073966955,0.4817522001957649,18,22,41,65,1
0.007234706833590061,0.005292615489039735,0.6701023583836387,0.46345279692447844,22,18,47,60,1
0.006303669367318,0.005792085971429936,0.5940228674493141,0.515070745482556,22,18,53,51,1
0.0072620520328808315,0.005091163946057107,0.6181604735610344,0.46413329847432866,16,18,48,53,1
0.007192735477426102,0.0042672267460293735,0.5984806861007317,0.432117140299171,18,20,46,55,1
0.0071648708090063466,0.004488112836364739,0.5694231496612754,0.43581166526475557,14,24,44,47,1
0.0067059849313337175,0.003882836877464178,0.5661168229022447,0.35429356507558324,16,24,49,56,1
0.006402138418091469,0.0038105619273897866,0.5779072887659334,0.35927778675177824,20,26,47,59,1
0.005996910003769285,0.003736028126805832,0.5395303820375565,0.3655135929883341,24,26,52,63,1
0.005724664690106872,0.003098994782265111,0.5322259115282503,0.3274284518913191,20,22,48,73,1
0.005733351422946698,0.0029432725290524054,0.5213311244396662,0.32750866612268253,20,26,43,80,1
0.0045204255750622155,0.002553072664179132,0.4502167241459176,0.3024336648398412,22,26,49,77,1
0.004498616319323746,0.002333015624207029,0.4797483777790244,0.2964972950637871,22,26,48,79,1
0.005024310361740313,0.002438260201307202,0.46656888482597125,0.316128821673246,20,22,49,74,1
0.00497590806221761,0.002436042155876368,0.47652983373700003,0.31606779965099907,24,26,42,65,1
0.004866889972047825,0.0023944067036289394,0.4518177394607264,0.3088242009966467,22,24,42,67,1
0.004826304280477311,0.002411735415867441,0.4134232245189078,0.28126889899758767,20,24,44,69,1
0.005354216211445693,0.002302667423984641,0.45802911412526287,0.2609523048628291,18,22,41,63,1
0.0058550571104113115,0.002184170708139391,0.4763948569640101,0.24371559484876928,16,24,42,66,1
0.005778505611483883,0.0022801990680933405,0.4488666568467941,0.23866339190994315,14,36,37,65,1
0.006098705209295178,0.0024113616427715104,0.4750809375099141,0.23498899663227102,12,30,36,63,1
0.005738733610850859,0.002586489805623515,0.43924633389638207,0.2368787404770676,14,30,39,63,1
0.0048229537158680155,0.002430493749124277,0.3756917540507666,0.24261548179261216,14,24,45,60,1
0.005195737244871851,0.002576720529286681,0.431076698778831,0.28007808311784443,18,20,47,59,1
0.00439431320188509,0.0024761298821365596,0.4151450849611169,0.277251518454553,18,18,49,60,1
0.004802921117716444,0.0025516452806763745,0.4327256336815569,0.28790157632796093,18,24,48,57,1
0.0046770842296498735,0.002607355535414232,0.4479045090218098,0.28316675797755664,16,22,50,59,1
0.005032714929044938,0.0021587491714404137,0.45819203766165595,0.24449993758286795,14,30,49,62,1
0.004996464501282467,0.0022462841895051883,0.43133591368214136,0.25190242330471924,16,28,54,54,1
0.0043581579153842,0.001989842478096506,0.3835288466229517,0.22717390682420885,18,26,48,61,1
0.003986393030334496,0.0021489116153273545,0.3588896004220621,0.23544247582625838,12,26,53,58,1
0.0030481140566554804,0.001987551083163544,0.2989742257491425,0.2222815741626854,22,24,52,61,1
0.003089390398501802,0.002013775267546928,0.3016683390851794,0.22054871289672406,20,24,38,64,1
0.0033097333556059917,0.0029778656791831924,0.3396520865897903,0.2955318669805653,26,24,51,56,1
0.003506896818183116,0.0029598354231277465,0.34946841419097435,0.3035968752798515,20,22,54,56,1
0.003721960543714618,0.0037809331851014327,0.40000260594505926,0.34392883405698865,16,20,55,55,1
0.003962822712207428,0.004392702800653268,0.40931103053460516,0.3817526512029278,20,24,59,55,1
0.00412040565917389,0.003887399626786289,0.4216304926772447,0.35629194657241475,20,22,54,59,1
0.0044946985031904954,0.004112289038162809,0.43902395749556,0.3664843571671069,24,18,58,57,1
0.0037361808567557137,0.0040084113322705305,0.41003962810306516,0.39232819117884393,20,16,60,51,1
0.004784651597287699,0.003950117954241224,0.4554506696297779,0.37257052276290914,18,16,59,46,1
0.004474074823472768,0.004745183708917804,0.45697869099927513,0.4168825883110477,26,18,62,41,1
0.0031712197773750067,0.0011506293670145616,0.3716201750390096,0.17204241922732358,28,36,66,83,2
0.0031169204800020017,0.0012380012860589626,0.37512553135663046,0.1711152947181721,28,42,69,78,2
0.0023439150434016215,0.0013112753607052077,0.3196488897276245,0.17045789779287104,32,36,72,74,2
0.0022588728762458587,0.0012016490467048834,0.2955380176331961,0.1466133064206253,28,34,71,75,2
0.001922881199657643,0.0010934121144976635,0.2790442017229862,0.12775395710254955,32,30,71,75,2
0.001798021637000983,0.0009350988997454375,0.24376476373394146,0.11673391728445151,30,34,78,78,2
0.0017223031927524795,0.0010330680405152477,0.24800275729720106,0.12724856983642113,28,24,80,70,2
0.001435277834782805,0.0010287615128108175,0.2316721099806754,0.12315486093944604,36,30,83,75,2
0.0014728480278801788,0.0009531218327835968,0.22999766746739164,0.12278717558865351,34,32,82,77,2
0.0014576911715173863,0.0010167393621742194,0.2284215491128263,0.12122371032541855,36,34,79,71,2
0.0014823097671984014,0.000920997011791123,0.21261382075869392,0.10441310369748404,40,24,82,70,2
0.0015047445782569377,0.0008050520665314798,0.20787092918822334,0.10824106644528551,36,36,77,68,2
0.0013374044262665827,0.0008082913919460168,0.18750952436792354,0.10283471156464546,32,30,77,63,2
0.0012003203519631862,0.0008073413162087293,0.1803515949045189,0.10108575965425837,34,34,80,68,2
0.0011680505703826531,0.0007750185916392346,0.17530787378504117,0.10599758100719661,28,34,76,73,2
0.0011825972652265287,0.0007520185652230244,0.18173042090698469,0.09772305007445342,32,30,78,77,2
0.0012715628370247097,0.0007332625963667318,0.18652838231302626,0.09966000854938863,26,38,73,71,2
0.0012372570061647081,0.000739993403477531,0.18393291665362427,0.09763171522252204,32,36,69,72,2
0.0012230012520447323,0.0006869099178700798,0.1752822559976705,0.08513120073138399,34,30,72,71,2
0.0012437040482132552,0.0006828431155605255,0.17784812141296086,0.08490763044253327,36,26,75,72,2
0.0012536543216138574,0.0007167222895720867,0.179590963578266,0.08720978768906201,28,22,68,69,2
0.0013210480312405958,0.0007488306379761305,0.19682448778864986,0.09314355155990603,34,30,77,78,2
0.0013269270906717536,0.0008413996504712554,0.21826866384132063,0.10365015351923508,32,28,78,81,2
0.0014241075784401452,0.0008285351984458543,0.22636896147501728,0.11176832177081956,32,30,82,80,2
0.0013634721612635408,0.0008875225276512816,0.2443787953063205,0.12123130586288383,34,32,89,86,2
0.0014657204804561866,0.0008485996438351745,0.25057923825560874,0.12196645426295358,30,30,85,83,2
0.0015596546907909498,0.0008771561925150951,0.2483864603227696,0.1147251668121396,32,28,91,80,2
0.0015688015528089018,0.0008814964484328775,0.2569796777823668,0.11639175545998522,32,30,85,77,2
0.0015628259471364458,0.0008360834802055384,0.25247118788656525,0.10617070100309287,34,32,84,69,2
0.0014614139341505097,0.0007940326307334488,0.23623634648695616,0.10247264302778795,38,28,78,73,2
0.001262052169123363,0.0007689215839755917,0.2198375098930569,0.10504930126656743,30,32,77,75,2
0.0010877162780687706,0.0007846945131766539,0.18371642975179625,0.09258122698550189,32,24,78,79,2
0.0009460189974865768,0.0007762939979617298,0.1584931057574654,0.08726507317748433,34,18,80,85,2
0.0009577477013993437,0.0008881023483789575,0.14746314988365877,0.08954415693165119,34,20,82,78,2
0.0009847854545077463,0.0009009850985122524,0.16199111601147748,0.09021981144294552,36,22,82,64,2
0.0010896214913698303,0.0009168909841390696,0.17728242089111276,0.09616847049954194,36,26,80,69,2
0.0012195021315980102,0.0008147338874107282,0.18419177257125766,0.09855615543548917,34,32,80,65,2
0.0011908389812242614,0.0008010252932816234,0.16787095409388791,0.09649004427578876,34,28,77,64,2
0.001038496275516288,0.0006811682275077307,0.15503890006553658,0.09148154723292783,32,30,77,70,2
0.0014771476087845706,0.0010951290855793,0.19461515498504844,0.12544493261334158,24,30,74,72,2
0.0016334957401129356,0.0011775544565795707,0.21789783836946042,0.1384781588090982,24,32,72,77,2
0.0017605246332901845,0.0012182405893445198,0.24101827687427008,0.1488925925549367,30,30,77,86,2
0.0018088549300604956,0.0009294139679949635,0.2628000921551072,0.14613861117673868,32,44,72,84,2
0.0015724492823760761,0.0008902619526322176,0.23117721081760156,0.13426862183048285,24,42,79,89,2
0.0014267790403784714,0.0008222117232506362,0.2205321971715842,0.12907131409239575,36,36,77,89,2
0.0013639915639177317,0.0008255451940335304,0.2070674631010244,0.12379172669172368,34,36,73,86,2
0.0013379745015511175,0.0008846406864964748,0.19416821434986123,0.12144077560540187,28,28,77,84,2
0.0013314690967219335,0.0008375019232624972,0.1725934415148088,0.11142417784037184,28,32,77,78,2
0.0006062386750408621,0.00553074933648896,0.0768878388094761,0.5729166516546148,26,26,70,50,3
0.0007635607895466382,0.006392785069684893,0.09556926340924168,0.6728567624639051,28,24,70,46,3
0.0008020289765520537,0.0067424515777686645,0.09624259814080359,0.701255200599908,34,28,74,53,3
0.0008636928611221565,0.006812528443288545,0.10176763027241657,0.6789232140299857,30,22,71,56,3
0.0007770294983731065,0.005315349352006692,0.09133916593213746,0.5863135101527114,28,26,69,63,3
0.0007780912231660818,0.0050882786496720175,0.0899023057376395,0.5724265855280963,26,26,68,62,3
0.0007572618593018489,0.005252141968756005,0.08982731489426894,0.5664039002044629,24,24,63,72,3
0.0007081107622007831,0.0060443888744900484,0.08744953802431749,0.6420341195447247,28,26,60,68,3
0.0006725288405254151,0.006680442616891601,0.08260020454038235,0.6541403435654064,30,22,65,62,3
0.0006626744194093754,0.007352235616192297,0.07570974571380706,0.6609911202489426,20,20,70,60,3
0.0006175990234598975,0.006977516286057442,0.08265426173915266,0.6866864423023825,24,26,72,57,3
0.0005682287491503201,0.006711308777105392,0.0748110093516834,0.6340186743477808,30,22,75,55,3
0.0006240728439590516,0.005927506777749434,0.07928282866422312,0.5765679642150124,26,20,80,63,3
0.000563874549121561,0.004783029422073682,0.07057143115067084,0.5013034465877648,26,24,81,64,3
0.0004920552645149442,0.004177075542987084,0.062201500123065114,0.4176231605166407,24,24,80,69,3
0.000454953441301157,0.003971524768138756,0.05819272660392185,0.4258816851109352,28,20,82,59,3
0.00044173768170886795,0.004047120479299475,0.0562257707853356,0.4351647976491001,26,22,88,54,3
0.00042963149158979907,0.004214102787108529,0.06115553917385641,0.4618941475038124,34,20,82,59,3
0.0005310891266102953,0.005305231696971958,0.062327775670272076,0.5001055581826278,23,22,77,54,3
0.0005985286278187837,0.005063923125644242,0.06587899310647513,0.4926470247966955,32,20,74,52,3
0.000568603290357102,0.005242390563476454,0.06320234806412958,0.48320342615253603,24,18,71,49,3
0.0005746938693055778,0.004910768266915262,0.06483314211552699,0.4497014221214912,24,22,73,52,3
0.0005546374652269522,0.005133441725173209,0.06680495099195378,0.4542773082471767,28,18,75,46,3
0.000547024309918609,0.004608347410655571,0.06677450539904686,0.4590289247383156,28,24,76,49,3
0.0004828397520590894,0.004712978077308845,0.06597493495968428,0.45682003498674123,32,20,76,49,3
0.0004370465958732004,0.004784220405306238,0.060521134257829096,0.4623428452900576,36,18,81,53,3
0.00037571838251452915,0.004224601298488462,0.05381616729497566,0.40266861791467295,30,20,86,58,3
0.0003898772995908443,0.0037033948016490636,0.05504805895457913,0.382190946528154,30,24,79,63,3
0.00046625619701278506,0.0036955013797410684,0.05645215612548936,0.400542762455968,26,28,87,67,3
0.00045581699798083784,0.0036363323060269836,0.05363103200991237,0.38653584786397027,28,28,86,59,3
0.0004913748430452443,0.004354194353418187,0.05633854734211789,0.4060164847593627,24,18,82,56,3
0.0004698631420337139,0.004807313910649687,0.052670742281712146,0.395209780137872,28,18,82,53,3
0.00037505221588282227,0.004561957173748191,0.04705975505624123,0.34675801669137807,30,16,86,50,3
0.00032092713212106776,0.004532263778094768,0.045826428716437086,0.3387986104115284,32,20,77,58,3
0.00033010691372303494,0.004342096859702465,0.041554973902932064,0.34128595104804377,33,20,79,50,3
0.0003703625552356988,0.003767316762190585,0.042372335504221204,0.3391305152628764,20,22,74,54,3
0.0003717353876403129,0.0038858094687303783,0.044638157952261934,0.37752631327786995,24,30,70,54,3
0.0004054767069961574,0.0037654637155759645,0.0439771511530886,0.36686653279286774,20,26,75,59,3
0.00038599616922696685,0.004009251767001683,0.04428069930821342,0.3594537073554457,22,22,76,55,3
0.0005392421886013996,0.004109794073919387,0.056960306678200144,0.40951119524702834,18,28,74,57,3
0.0006223784786428755,0.004053091484888843,0.06921608793063566,0.4152690146046396,24,24,63,60,3
0.0006378848349412735,0.006214009063944826,0.07526832376205535,0.5181723241927009,26,22,74,55,3
0.000555515336947371,0.0057983518166642885,0.07922461067014105,0.5523921362672017,32,24,76,57,3
0.0006225250980327916,0.005790200349057385,0.07957948880899127,0.5362437035222649,32,20,73,62,3
0.0005617162345614097,0.005997731922294272,0.07546929121414389,0.554544792951335,28,18,79,61,3
0.0005982249991341706,0.0046141706070754905,0.07769155247258394,0.4618472507669587,30,28,74,64,3
0.0006213152331557101,0.004674896861890945,0.07529959411502868,0.4188244307023147,32,22,79,64,3
0.0006633470644114693,0.005310825893701008,0.07626173525446431,0.4418135475502257,24,20,73,63,3
0.00019764991526471622,0.0007374326673232494,0.0213148848249953,0.09323530206613463,28,26,64,76,4
0.0001642493100051438,0.0006669706524382522,0.01845816903247844,0.08301911441197043,32,32,72,71,4
0.00014967920664133282,0.0005970497539703388,0.015709504378092314,0.07075155805992132,24,32,62,71,4
0.00015074664949298863,0.0006030272637859699,0.015358928228303075,0.06551194249303285,22,28,58,65,4
0.0001284547406738174,0.0005261319592672944,0.013795418148100867,0.0631760454535128,26,24,67,65,4
0.00012311950612362024,0.0005390332360711396,0.01281901047400856,0.06392964159725599,26,30,72,67,4
0.00011420005724117267,0.0004710111761534159,0.012191921282931685,0.06244279366584681,26,32,72,72,4
0.00011682863000150326,0.0004912992508296145,0.01173234659783177,0.0681527960128057,28,28,76,75,4
0.000125914184911479,0.0004552628023489363,0.011626162820956031,0.06178414366209137,26,32,67,75,4
0.00011845667327514182,0.000474625831583849,0.011721886283744274,0.06397537604496506,22,28,66,75,4
0.00011692474203776638,0.00047818172274095426,0.012275377321713096,0.05913793296079599,26,24,69,74,4
0.00011015483580697933,0.00039436950740113477,0.011912434851948431,0.04606270301614986,22,30,72,82,4
0.00011653081088905937,0.000381277188672497,0.01121104302582096,0.042371099133959124,20,28,72,80,4
0.0001190367722189449,0.00037744952033595333,0.011089030576561312,0.04071681399173559,28,18,62,80,4
0.00012076700199885356,0.00034013365750305206,0.011001259322408884,0.039921146029113605,22,16,58,77,4
0.00011654781222066186,0.00033341858441081817,0.010445319722581156,0.041814440589362616,24,22,60,78,4
0.00012430574800465115,0.00032983700128393805,0.011209420849317626,0.04534602112336819,26,26,60,78,4
0.00013391198824266382,0.0003765307059077573,0.011525335438374033,0.04762335852180247,22,24,63,72,4
0.00013067096610390878,0.00038232372547135243,0.012267811589355178,0.04891343327803914,31,34,68,72,4
0.00012992572530928358,0.0004209954438598551,0.012384812720697556,0.04798016512019943,24,24,70,72,4
0.0001209043051595848,0.00037220501343060284,0.011253974831285278,0.04012396528114146,27,26,68,68,4
0.00011826560962810161,0.00033218224413564403,0.011048593537946289,0.03590248856151228,26,18,68,69,4
0.00013116261844851605,0.0003200293672343604,0.011144582116900541,0.0368567118556411,27,27,59,77,4
0.00012626941477249863,0.0003044782653439495,0.010856546394724869,0.03593247487859612,20,24,66,72,4
0.00012188479424101721,0.00030108017659458396,0.01097776973580424,0.04005272514644466,27,32,72,80,4
0.00013009553887224237,0.0003197204490402811,0.01157121105537846,0.04109466728341474,32,22,64,73,4
0.00012563550292792064,0.00029136000307255545,0.011480529398108088,0.03994228942637736,29,28,68,69,4
0.0002963612344473947,0.0003406066580500309,0.021024304667637154,0.040695583141854626,10,26,63,71,4
0.0007374122619774945,0.0008894472861789596,0.04524740501026993,0.06950438250369619,9,11,60,64,4
0.0007949591528594976,0.0009486943930883923,0.04620047778302093,0.07029518861347991,6,8,57,64,4
0.0006678488743842045,0.0009401251881713773,0.03870162686468414,0.0676567376133132,4,10,51,65,4
0.0006349844981257074,0.0009002889722799512,0.037825219867966955,0.06994995014003126,4,12,48,68,4
0.00013850989710143314,0.00027939837752345123,0.01266932696912549,0.03876030143972313,28,34,68,79,4
0.00014442315848099124,0.0003006877145973433,0.012613284550890638,0.03845002939102203,19,29,61,73,4
0.00015251713732680007,0.000314371100017279,0.012840504943120253,0.03770800821202255,24,32,60,76,4
0.0001441851688991754,0.0003162499045441982,0.012173085123088756,0.03551609874907746,23,29,62,75,4
0.00014515934086170516,0.0003416651779416381,0.011610924707098808,0.037435444586537234,24,28,56,72,4
0.00014739078933626303,0.0003235300652673107,0.01135366230056025,0.03528928440600617,19,29,62,75,4
0.00014090839467772914,0.0002909822325357091,0.011293490889424277,0.03676894450228322,22,34,65,78,4
0.00014891656098660214,0.00029903123572788107,0.012361302260841532,0.03813935998975873,21,29,61,72,4
0.00015934027638952217,0.00030484290692361416,0.012180114470582867,0.03925610117555112,20,24,64,71,4
0.00015281536280863634,0.00033672294441236864,0.012359578417715927,0.04027000724402431,19,27,64,69,4
0.00014565004122866346,0.0003185278580639968,0.012772534655161032,0.036555614226551875,22,22,63,71,4
0.0001478942909833461,0.00031736032702159544,0.0122166948890201,0.03718400589303498,23,25,73,77,4
0.0001496157570061841,0.0003421092787045398,0.012482865362216832,0.03812943918452394,22,20,67,74,4
0.00015967524993526478,0.0003294054900707314,0.012533902992409899,0.03454977644729336,15,26,63,77,4
0.00014626644520160682,0.00036530198357758483,0.01242546849013442,0.03481229264288618,18,22,56,75,4
0.00015246170606469963,0.0003132835815495931,0.0129774337121802,0.03286886495551407,20,25,62,74,4
0.0018899573743393408,0.0036879035333565397,0.19178458724150474,0.2823358360130975,22,18,60,52,0
0.0016442093730106118,0.0036217017662697974,0.17258035827628335,0.2931904878993445,22,20,56,55,0
0.0015618934916420703,0.003391290865173514,0.1706096540237521,0.30023524458072337,27,20,63,52,0
0.0017857612332161702,0.003323100767374283,0.19527918244501646,0.30420203148978164,20,16,63,49,0
0.00218611287006428,0.0034390405243726304,0.21533148471484892,0.3351456898430542,18,22,64,48,0
0.002373431366558361,0.0030132122876493916,0.23559486357934037,0.3142911873211222,22,22,63,54,0
0.002377592114680206,0.0029343769559451367,0.22625231802126944,0.30487590820099425,26,26,59,53,0
0.0022157606346375354,0.0034314010721539583,0.20560902984541748,0.30553867480529384,22,20,54,53,0
0.0017044416024539892,0.003120073535875123,0.17586994327409503,0.29015112494272494,22,24,60,57,0
0.0017953128581212805,0.0035587325120094216,0.19983137934252712,0.3042980755336612,28,16,63,50,0
0.002076645356649672,0.0038969410282352103,0.23156285611249502,0.31624484945504344,20,18,71,54,0
0.0021601278267818487,0.00464593211646483,0.2522197137016255,0.33917687989344847,26,14,67,45,0
0.002300133959266411,0.004689689508305116,0.28796891666886815,0.3370091108313045,24,18,62,44,0
0.0022571962992432265,0.0046017694020912886,0.2810463458841178,0.3568292639507979,26,16,67,46,0
0.002169655915089847,0.004511452033849827,0.2630049151486791,0.3534985466916373,28,16,69,48,0
0.0020226699161060555,0.003813503020156033,0.25075509382399647,0.3395025439261739,28,18,68,52,0
0.0018429989061866598,0.003546771936733612,0.21499592036604281,0.3247316121211546,32,20,79,59,0
0.0019160056448861088,0.0039028352595666406,0.20083601449427776,0.32481835720299196,24,24,71,55,0
0.001870611157375658,0.003574865362941144,0.20935122055457653,0.3234172505174852,32,20,66,55,0
0.001965866964898008,0.0036882770733776687,0.2085687412371166,0.3340834312651455,28,18,68,48,0
0.0018882435306150328,0.003783364387156465,0.21670221801585568,0.3263742630776093,22,16,65,44,0
0.0018261265928495583,0.002812389929061614,0.22091393773348197,0.2832659471996527,30,20,66,45,0
0.0017436781584533702,0.0029602368482026602,0.2082093646766059,0.2792135518699852,30,20,67,48,0
0.001793065165901902,0.002799497593401253,0.20150651877268896,0.25224251746358306,28,20,55,50,0
0.0018666789884753134,0.002604713729357636,0.20353408394934802,0.23676672778660887,28,22,57,54,0
0.0018492117435635488,0.0022676160313371456,0.19009243180568391,0.22836958161305748,24,28,58,56,0
0.001776879680797662,0.0022647892079672455,0.19379034308141665,0.23546518701986857,26,20,61,56,0
0.0017509494485780923,0.0020762249660245327,0.20001306740875785,0.22614796516497623,34,22,67,61,0
0.001684618535808693,0.002023881123692161,0.19762145760374752,0.21210077940682973,28,16,62,66,0
0.001605403057891656,0.002380785268142138,0.20219009251076836,0.24054484795186165,28,20,67,57,0
0.0015336577361307472,0.0026672749831833124,0.20296499904997697,0.23719556016494764,28,20,66,54,0
0.0015198164890997156,0.002844068512778953,0.19621997045159917,0.25488893866248,28,20,67,45,0
0.0014023464040639386,0.0030081787997854464,0.17109956472777757,0.2685428042097365,24,22,75,46,0
0.0014167639402010825,0.00352251474770453,0.1791092043856543,0.2791646194143961,22,16,72,43,0
0.0013560104206658654,0.0036081979154335723,0.1606397734494281,0.27410320592098786,28,16,74,43,0
0.0014261944064221355,0.0033576325199980495,0.17032269295901542,0.26542210941472544,28,18,71,52,0
0.0015451190219961473,0.003582654785422202,0.18026013995531046,0.2815202813429158,22,12,69,49,0
0.001539460404020821,0.002968954004106634,0.1892802513273437,0.260730369141834,22,18,71,48,0
0.0015850336728289423,0.002714660323523603,0.19821420877587717,0.2657892792489909,26,22,67,50,0
0.0014271612901476686,0.0033617466401942714,0.18440752557023032,0.3008990308877624,26,22,69,44,0
0.0015150649858397941,0.003008552158845554,0.20256539045104419,0.27923417554168906,20,24,67,45,0
0.0015725174441797373,0.003052058119451396,0.1965173708907195,0.2734433061042942,20,20,65,51,0
0.0017324899226700344,0.003562284689774498,0.19523058499218018,0.28376613695989994,22,18,67,45,0
0.0017945258440797548,0.003943314875017892,0.2061743785734919,0.27058419565452874,22,16,62,50,0
0.0016634155162026248,0.0039425807755019086,0.2041169585654121,0.2865695706117356,26,14,68,51,0
0.001779048932852868,0.004111729863786027,0.2073681837092944,0.2926775608670983,24,16,67,48,0
0.0018960586320601873,0.003894991986467674,0.22680357718699695,0.2929910764937724,20,18,68,48,0
0.0017880541159551115,0.003321368562259987,0.21559081782654607,0.25205587418594483,24,22,72,43,0
0.0018718090171057219,0.0032911831713399995,0.2058319482950335,0.2649850486421758,20,18,67,45,0
0.001738078288197663,0.001316345779583318,0.20581243137715233,0.15095257770095952,22,30,63,63,1
0.002073856601788779,0.0012673516564405765,0.2150814030863157,0.1520829501838636,22,28,57,57,1
0.0021086564768892204,0.0012396147575662606,0.20209850620788905,0.14348138686467454,16,28,59,57,1
0.002240087630301655,0.001313903491615332,0.19640546499450112,0.1453151925154578,16,26,55,55,1
0.0021841552375767544,0.0012806856712842094,0.19414772442395226,0.1422019604966153,18,28,53,63,1
0.0020100161422709926,0.001438277646931154,0.17914559381534634,0.1364502014736626,18,22,62,65,1
0.0020396857835152746,0.0013733408950802617,0.17978671071658778,0.13083521026892073,20,22,57,73,1
0.002104485211213724,0.0013717308270420007,0.1844044934893515,0.13453743166540605,18,20,57,78,1
0.0028791663177739272,0.0014602741726091528,0.22237212536272852,0.1449211585604339,12,20,51,72,1
0.002978090560752547,0.0019438784809592915,0.25469884623570654,0.2161472180538326,14,20,51,74,1
0.003869339453658293,0.002782093901786406,0.3326853383914335,0.2957007008442806,18,20,45,68,1
0.004162098367436096,0.0035025308257017364,0.39630634772575213,0.32782497820671175,18,28,49,64,1
0.004889466074204232,0.0044160120265867905,0.4487318483199729,0.36910881126020756,20,22,51,57,1
0.004994030171643934,0.0038893583239451436,0.4632880057297933,0.3399575935860667,16,22,58,58,1
0.004769444280542462,0.0034863368909757086,0.4444943595088413,0.3145026267928607,18,20,53,61,1
0.004394225744174991,0.003780487262030041,0.4187198423370964,0.31829104644347106,18,18,52,53,1
0.004322937345416906,0.0033825027143185703,0.3853213463881634,0.2832134927402428,26,16,51,54,1
0.004027917861911074,0.003746186914809322,0.34691622529177346,0.3156652539297051,18,18,48,49,1
0.003844554412827596,0.003254766587889918,0.33703434111457886,0.27826178889635594,18,16,53,55,1
0.0032501384663889722,0.0026502690851777566,0.29443620225446454,0.25401314951056525,18,18,47,62,1
0.0028379181692464416,0.0024707367879580376,0.28767094636163315,0.25666396092448673,20,22,51,64,1
0.003210186540871728,0.0021209881072803936,0.3082657024095131,0.19621985963109378,18,20,50,71,1
0.0031151299012807743,0.0021311927878513424,0.2800922523736886,0.200373866235058,18,22,50,70,1
0.003146738292618134,0.0022875770026772077,0.29863761561925245,0.210284191380305,18,22,51,65,1
0.0029853154776932123,0.0026118207311540665,0.2888336929865822,0.21986607054125723,14,20,47,50,1
0.0038991575312026776,0.0024831936680953562,0.323641004208241,0.23562738894289134,12,24,51,49,1
0.004316916334071668,0.00256217293554334,0.3569151881452608,0.2319379096724296,14,20,45,43,1
0.004031642402531045,0.0023968949439166017,0.3399980589055891,0.21674267579289735,14,18,43,51,1
0.004151971035688318,0.0021061079613928714,0.32914553640390637,0.19660363526304037,12,16,36,50,1
0.0030069284565942163,0.0018878013622203183,0.25395734009144916,0.1718674500610345,14,20,41,60,1
0.0022609057172977088,0.0017668446991468334,0.20757110337414966,0.17333928124428613,20,22,49,59,1
0.00212833424278054,0.0015665755844888477,0.18940027406184032,0.16073773386861484,22,32,57,58,1
0.0021174010895926663,0.001423966605170692,0.2014563914915868,0.16634901847261746,18,38,57,62,1
0.002486763418933782,0.0014819811522418247,0.21579361796314228,0.17692716183328494,18,34,56,65,1
0.0026934978521676385,0.0016630240973660427,0.22873882896184872,0.19421848416114873,14,24,52,61,1
0.002871442300842465,0.0017572578837024063,0.24604061093920873,0.21532054222318478,14,28,53,58,1
0.002862605724641165,0.002265261136280283,0.24855269840423985,0.23808759675262253,14,24,55,58,1
0.002648958833938594,0.002811502398221386,0.24286468628799615,0.24760791461201967,18,20,56,44,1
0.0025654104084151326,0.0029403329201159113,0.24573238361799965,0.26405765870748854,22,22,56,48,1
0.00288248226411377,0.002867065528413506,0.2678948802788457,0.2539449383120566,22,20,53,51,1
0.0026374830357564754,0.0027886241073937237,0.25986180341646775,0.2539064354625615,20,22,57,57,1
0.003421202891667618,0.002404450264158989,0.31576659569575144,0.2566982006624597,20,26,51,57,1
0.003945030896464266,0.002175498748917871,0.34149859729490994,0.24527325833547278,20,26,43,67,1
0.0040879258560135336,0.002251557671443439,0.35199743375133735,0.24342060294233922,16,28,43,68,1
0.004785065433446463,0.0022634658657788975,0.35733837763316717,0.2433600332071303,14,28,50,62,1
0.004581183850508871,0.002210344433719245,0.35498685653617756,0.23314792448725155,14,20,48,59,1
0.0040654330788103795,0.002350249024380486,0.3218025600672938,0.2523336679602322,14,26,56,55,1
0.0041858802705217885,0.002726350459310061,0.31461829495436167,0.2745793211072805,16,16,54,56,1
0.003442382268264317,0.002485341842187445,0.2965438909770295,0.25410964663274205,16,24,62,58,1
0.0009092763498607599,0.0006049291613675884,0.11529081546020693,0.07665031976149271,22,22,84,74,2
0.0008533142881741177,0.0005890400836857417,0.11860131957543962,0.07989613211101368,26,26,83,75,2
0.0010340825441175737,0.0006196039494087688,0.1281539072638675,0.08312259184570431,24,32,77,81,2
0.0008731054415869606,0.0006514795976252612,0.13514525265734623,0.08080161938849872,28,28,77,80,2
0.0008591361871409362,0.0005997935291957684,0.13435967402706164,0.08095423903177175,34,30,75,80,2
0.0008594938584732387,0.0005700290455729139,0.13055199433820078,0.07676773612854831,38,38,78,78,2
0.0008930119971388239,0.0006228755350205529,0.12422061941025524,0.08047570192527968,32,36,82,73,2
0.000810439194657068,0.0006270370518349082,0.11378574862255095,0.07969484979759761,30,38,81,75,2
0.0009229569526616819,0.0006070290722043907,0.12362206866911622,0.08624296413508412,26,42,73,80,2
0.001332016721109805,0.000767502554443776,0.17342194465019756,0.11649762034440804,22,32,70,86,2
0.001508704750060358,0.0010522878431577184,0.20101193563907233,0.15522300406475967,24,24,68,90,2
0.0018256240096983921,0.0011440037263072626,0.25951914180452734,0.18324028254550692,28,32,66,89,2
0.0019147358763647719,0.0010748769491013685,0.2697396811980184,0.19100935369626737,32,32,65,85,2
0.0016111371690335457,0.001047527041150513,0.23874688046873493,0.1759945332247335,34,38,69,83,2
0.001426934140570003,0.0008433870427750048,0.22366166989882696,0.14108188866044719,38,38,73,84,2
0.001284243451357336,0.000762228024707587,0.19017761731739952,0.1241410023137798,36,34,72,90,2
0.0011683279797494895,0.0007201364741833754,0.1736667286834355,0.10865608958974657,32,34,73,89,2
0.0010547143408158556,0.0005939505641216954,0.15905216971108882,0.09722777929078996,30,36,80,82,2
0.0011193612245709137,0.0005004243157675645,0.15724963119944574,0.0887696524663635,32,38,72,92,2
0.001041447929336628,0.0004272028518067153,0.14705530553150112,0.08014307922861391,36,42,68,94,2
0.0010152305075640036,0.00047891444818290934,0.15202189586778303,0.08424040518275497,34,38,68,97,2
0.0009261195848060925,0.00044278330501971584,0.14394183238942457,0.08095365053700351,32,50,68,96,2
0.0009675816838141732,0.0005002789528091862,0.13490251254719565,0.08851963772513889,30,38,67,93,2
0.000792743106938131,0.00047139204861593794,0.1252320019740728,0.07983824122506199,32,36,77,89,2
0.0008878535173920117,0.000468822446525699,0.1264572179861228,0.07942173889927083,32,47,76,89,2
0.0008498224289610711,0.00045345306994191737,0.12295009177089887,0.07686964890216592,28,48,80,91,2
0.0008961098759837035,0.0004591758636474833,0.1271866314641479,0.06950756482803166,32,42,84,92,2
0.0009340231736075507,0.0005401813294622309,0.12785785151362647,0.07835196503998237,28,32,75,88,2
0.000926998378379212,0.0004969768854754603,0.12595817029029016,0.07648525277208161,24,40,73,92,2
0.0009040203489824228,0.0005045120218795162,0.1254375278018221,0.07801998350010951,24,30,77,88,2
0.0008925114435398378,0.0004984272823226088,0.12160207685933865,0.08316595551384019,26,37,74,90,2
0.0008830982204926076,0.0004910768845002875,0.12211797361243786,0.08065884040576557,22,34,79,90,2
0.0008095746076017073,0.0005155084965775606,0.11891833951786729,0.08088046312603453,28,37,79,91,2
0.0009911698869622897,0.0005279686712796929,0.13359850407656088,0.08267535336765357,26,40,74,92,2
0.0010325220981460526,0.000534518719012547,0.13414471497405886,0.08203015849525593,26,38,75,93,2
0.0010508550691219855,0.000525004390113827,0.14274279172422058,0.08076644520124154,22,36,71,96,2
0.0010253726475630354,0.0005028695117876922,0.14460292166493155,0.08019573877882384,30,40,71,89,2
0.001025598684804629,0.0005124135046518221,0.15007846630399443,0.08350074291449712,24,36,71,88,2
0.0010593719170042901,0.0005866718761787861,0.15838584412152884,0.08585097377438326,32,34,66,89,2
0.0010776793919907949,0.0005467507714601094,0.17041151258970968,0.09153669135698836,40,38,67,87,2
0.001052563069565734,0.0005631514374047782,0.16791161320314252,0.09017117182336826,38,37,68,85,2
0.0009663521449615889,0.0005896824764110105,0.14690356431784496,0.09047508291914744,34,44,73,94,2
0.0009115076019838346,0.0005563222087484759,0.13702420192350193,0.08215703575891731,36,39,78,92,2
0.0009584917138155705,0.0005080768727519043,0.12733274332611583,0.07586794659231695,28,34,70,91,2
0.0010675254603945321,0.0005386331341106624,0.13231007873224526,0.07663362157772813,32,37,65,91,2
0.0010346435326370293,0.0005489498893401478,0.13788134136704167,0.07196840736205364,32,30,66,83,2
0.001078166333054932,0.0005677557652033602,0.14470542574546444,0.07518388467880537,32,27,67,83,2
0.0010143436321589851,0.0005113880928101365,0.14395892950324685,0.07086209325399878,26,28,67,91,2
0.0009745066457037758,0.00046333876267736537,0.1505875638423332,0.06568003744599343,28,39,70,89,2
0.0004024271851920585,0.002751579852318034,0.05165727427627244,0.29519917893382003,32,30,69,62,3
0.000374085766482915,0.0027975164550545924,0.04787634401581517,0.2662718754571155,32,20,76,64,3
0.0004348189946702645,0.003383771144516629,0.04807215774563897,0.30869407773910956,30,18,75,58,3
0.0004257048892559759,0.003577608485610062,0.04579369177820773,0.31477427530414626,30,24,82,61,3
0.00038109366420255135,0.0032531845035251154,0.041555463927267645,0.30397983487375124,28,22,87,60,3
0.0003715171233003862,0.003873269874805919,0.04911424835157503,0.3451213837182035,32,18,83,59,3
0.0003306203235052208,0.0029057276688054527,0.047909861163548374,0.2981474426852183,30,18,86,68,3
0.0002871532606505329,0.002935222181463877,0.045135540980323054,0.32056653071205304,34,20,86,68,3
0.00031660790582957536,0.0028477564159822754,0.045542751121516234,0.3153506391325657,32,24,87,73,3
0.00044206398309376636,0.0030765381703131965,0.049209220348341146,0.31611244928781174,26,18,75,76,3
0.0005032682262401407,0.003812992924404586,0.051860636616730196,0.339414494743403,24,18,76,67,3
0.0005067629375403878,0.003939486347302041,0.06050897837542611,0.3458793534453374,26,14,80,57,3
0.00041446181345627324,0.00405509797625119,0.05908334485020251,0.353190539974593,32,16,82,58,3
0.0004200203799488264,0.003915772215395827,0.06237917961694831,0.3954597898669806,32,20,84,62,3
0.00042897405559020056,0.0036182717178590636,0.06481498859136092,0.420308409755077,38,26,87,61,3
0.00042820619018632403,0.003635200689045243,0.06237990247634917,0.45095622747984515,28,28,79,62,3
0.0004537122315261132,0.0036890951758336947,0.06270375230417785,0.44072005068778525,32,26,71,58,3
0.000460705595053749,0.003444470332567931,0.05803833358816306,0.39836879612529624,36,30,72,66,3
0.0004225018863588256,0.0033134122140574362,0.052100695928680864,0.3613045316066183,32,26,74,61,3
0.00041315134483100924,0.002877826456049611,0.04922345617346533,0.31272743020429955,30,30,80,63,3
0.0003588328841127173,0.0025646774174134124,0.045089117335662746,0.29396258286801863,30,32,82,65,3
0.00037106256124976695,0.002516227200837097,0.04525713462232503,0.2949862501865984,30,28,84,71,3
0.0003986572569213735,0.002513582233450366,0.0483774022808248,0.29310336706582474,32,30,73,68,3
0.0003794442843922874,0.0022754446047637553,0.04774075487117772,0.2900699835099113,28,28,74,66,3
0.0003767510303324144,0.002595638301068673,0.04863792332639723,0.296377845591929,22,18,70,65,3
0.0004337660571552833,0.00304247620558881,0.05114096466180209,0.2933585112506097,20,20,71,63,3
0.00045914916220813446,0.0031548691204995754,0.0522600674512386,0.32363314647027364,18,20,65,65,3
0.00045879473726055095,0.0033196280445010845,0.05431369433736855,0.3313654439384442,28,20,62,62,3
0.00041851403327406616,0.0028850595702444837,0.05382597634224723,0.32349446671795923,28,22,69,65,3
0.0003679810153199689,0.002605996738888444,0.049383531013496414,0.33198486248747244,30,32,72,67,3
0.000383937102999664,0.002668165302757187,0.04747139421282332,0.29399793815399744,32,22,77,73,3
0.0003526694550679386,0.0026581169949726523,0.04627080434229884,0.3117828505791631,32,22,71,75,3
0.0003537309967345869,0.002422060441053475,0.04454421257068064,0.29671095758643173,30,24,74,75,3
0.00036580374237081824,0.0024187725814666414,0.04467027385250097,0.2896210163366059,32,24,74,76,3
0.000347287527258393,0.0018885282358345576,0.042176436724573114,0.28322383632281206,34,34,72,79,3
0.00035150893283120724,0.0017935984808761984,0.04230653664504406,0.26336527865331566,30,30,74,77,3
0.00036768250897800117,0.002292285863915746,0.04624418343679864,0.2781385873292879,26,22,70,74,3
0.00038683940543822253,0.0023884890841717275,0.04874551787864239,0.2785038822157443,29,24,70,67,3
0.0004209974459077421,0.0027108632960168044,0.051911450463623596,0.27140316886073956,28,20,71,68,3
0.0003725547711115036,0.0026270404867299252,0.050643640137633124,0.26540273320166347,34,22,73,76,3
0.0003506694488623986,0.0021947607165440216,0.04642467811899426,0.25785722027394764,24,28,71,77,3
0.00030622185650046964,0.002057649531945078,0.043947932286213215,0.2573418971387604,35,28,73,69,3
0.000349615549397444,0.0019855276465142973,0.044839201714407625,0.2668350082756648,26,32,70,70,3
0.00032775380174840336,0.002081334253932132,0.04135763038818503,0.26396933968620484,33,34,77,68,3
0.00033370937733798113,0.0019525003447805828,0.04464605101753172,0.27490886975152207,30,34,83,68,3
0.0003411951297410253,0.0020074460217902775,0.046229563787009056,0.2650257317150872,23,30,80,71,3
0.00036370554858006666,0.002064504029369511,0.048553621940066835,0.2587713077574016,26,26,80,74,3
0.00038404544750836496,0.0027256648123061772,0.053186871122005853,0.28203648090165645,29,20,84,76,3
0.0004311702102793555,0.0024872708595479864,0.054885874488737184,0.27293654013054885,24,24,74,76,3
0.00016132782987614915,0.00033342863422368435,0.01684469914652857,0.040291253039808725,26,30,84,75,4
0.00016590354352872391,0.00032304930239871984,0.0159431402935883,0.03840053824834672,25,33,81,80,4
0.00017551219547884005,0.0002844366741014189,0.015681660502466613,0.03288687206661376,24,28,85,76,4
0.00018137455811781514,0.00034787852078018024,0.01693421323271718,0.0394147425250547,31,38,86,68,4
0.0001974778829718003,0.00037840909839811525,0.0174356840499477,0.04218539578286754,22,30,76,73,4
0.0001934181132578705,0.0003571894993403211,0.01685915038970976,0.040847706844697004,21,32,74,82,4
0.00019280914500777703,0.00035673322390401455,0.017837518254205566,0.04160252241418296,26,22,73,86,4
0.00019535585389945793,0.00030068476062741675,0.015919471289114844,0.03818271496225459,25,31,68,88,4
0.00017853577310958415,0.00029513281105426843,0.015794276522127792,0.03745521079752568,26,26,72,81,4
0.00019388860092472298,0.000382241078332168,0.016668092059916248,0.040182413195040984,23,23,73,81,4
0.00019491932769074912,0.0003758694187281398,0.015716034724376358,0.037499509390593266,22,24,70,81,4
0.00019622626087856726,0.00035120615208770496,0.016104331069954462,0.03871633355000803,25,27,74,77,4
0.00018315746191118864,0.00032724117276097917,0.015780298788294494,0.03982438399549643,24,30,74,83,4
0.0001793466992532062,0.0002768817162096831,0.015576761087561737,0.03742529280412834,26,35,78,90,4
0.00018295638758654905,0.0003260879007061651,0.016079535655047657,0.03980280321338287,26,28,71,81,4
0.00017727214488180463,0.000321099700245757,0.016133692555054792,0.03765920752594478,22,29,70,83,4
0.0001827783121754927,0.00028658479029003756,0.016971199459272265,0.03886870119187043,28,30,69,79,4
0.00018882195047720718,0.0003253332892882883,0.01673761476999745,0.03989222905503728,26,39,65,76,4
0.0003060332443625287,0.0003774342087081398,0.021395342272898393,0.041707512927134816,24,28,53,68,4
0.0005335916936642888,0.001161474429184517,0.035496473682521436,0.091967662389859,14,8,44,62,4
0.0006149798341801453,0.0020084709949216256,0.04081141440525561,0.1680688644205293,8,8,48,70,4
0.0006777176010879276,0.0026673165175462848,0.04956752369222681,0.23520818620278322,12,18,52,57,4
0.0006568055291972532,0.003020310309724883,0.051086004777597796,0.28033697433285665,10,22,61,57,4
0.0004848692164432848,0.003448008125074459,0.04188641292202509,0.2877817482738304,13,18,70,47,4
0.0006086234675200006,0.002807843080847169,0.045933731054758876,0.2509046068001094,12,14,59,53,4
0.0004679445517130626,0.0021197580603225267,0.03957342036716624,0.20891103295571617,17,14,59,54,4
0.000547821818205124,0.0019953081961421827,0.045838389710589865,0.18494322957107442,16,16,55,46,4
0.0007797904776300045,0.0013781850881808002,0.055135403750511694,0.11442770643159388,11,14,54,52,4
0.000820810938177437,0.0010872893721378986,0.05660429589939681,0.08560239956028551,12,10,51,50,4
0.0008739113596227542,0.000720928061153733,0.05902991877375848,0.057145405357986366,14,10,46,61,4
0.0007944034147623665,0.000256679027994202,0.04789769155878652,0.03467755144854946,8,32,52,75,4
0.000461209454234842,0.00030416601885670453,0.030316204109995182,0.03670786074330589,14,25,42,75,4
0.00037032648320663446,0.00035638399230739597,0.024094541441283583,0.04539294070708698,18,28,52,72,4
0.00028930951594122384,0.00039200839055337334,0.019149063761156458,0.049009779161814884,18,30,53,71,4
0.0002562689173759283,0.000426548546494645,0.018127450106708853,0.047861603173959565,18,26,52,69,4
0.00022767300632000294,0.00040460390235945513,0.01632362276528745,0.04377160259524813,18,34,57,72,4
0.00020552394205437666,0.0003694091577328415,0.014942615958034512,0.041542820099780525,18,34,52,71,4
0.0001973825600795045,0.00033030142748396887,0.01363980206435418,0.036558613740522626,16,26,50,72,4
0.0002129949524874224,0.0003531717686543333,0.014320575833433671,0.04242859243817612,14,30,55,74,4
0.00020900399038348134,0.0003395319856167209,0.01413757705315453,0.04181253673491668,18,32,59,80,4
0.00020652979732525432,0.0003430743840372853,0.014686419185538209,0.04146349557091611,18,30,58,78,4
0.00020748434400603036,0.00030928783304224705,0.014425492424195245,0.03951954646329335,18,28,52,72,4
0.00021396021808765397,0.00033882350140002,0.013822794260620693,0.04250729099703626,16,26,41,74,4
0.00019483985395067938,0.0003169277684411223,0.013471534528973943,0.04017860459802615,18,29,42,74,4
0.0002015688182274484,0.0003173331989009359,0.013125440386405517,0.038905333037948575,18,26,46,70,4
0.00019895931112959655,0.0003147149982553722,0.01304664909189033,0.03749679310501085,18,30,46,70,4
0.0001969397942917659,0.00029838502980783033,0.013358870638312117,0.03250256863212092,18,20,43,71,4
0.00019274672418043723,0.00027980956046202646,0.013389312406992268,0.030540023982078904,20,21,48,71,4
0.0001855947844167115,0.0002517539389588015,0.013455367181743295,0.030092653013368477,18,24,56,73,4
0.003509502661770684,0.005320379842709863,0.2559568080717609,0.4183174573740397,16,16,52,39,0
0.0037293749685292743,0.005944872582514641,0.276392879462866,0.4650179524250675,18,16,52,37,0
0.0036178780436910835,0.006065075791032999,0.2713472993569748,0.5072455527070108,14,18,51,32,0
0.0028676588374897446,0.006139616972349109,0.23722711968593585,0.47003112559463045,14,20,56,41,0
0.002641860821146508,0.00625321970836918,0.23325626277193529,0.4555969434825908,18,16,58,45,0
0.002287442609272819,0.005908229222976752,0.22127008655172187,0.4279758435527828,20,20,58,45,0
0.002660271941162179,0.004632482770265599,0.24773559246950905,0.3433814406761204,24,18,59,56,0
0.00284878343901529,0.004848690302266935,0.26060745163824245,0.3718436725814651,22,18,55,50,0
0.00294814240946775,0.004396682280424949,0.2666381785522311,0.36321326773343,18,16,52,49,0
0.0028384754622813473,0.003993168712226691,0.2598731833025366,0.3711543131012943,18,20,59,55,0
0.0024821991039528867,0.004620599969557148,0.2339264433891225,0.4315388630845428,16,20,57,51,0
0.002286238880627152,0.004686083811646544,0.24228818937688815,0.42895810547769153,20,22,67,45,0
0.001935412151683208,0.00520642836623393,0.20382161953031377,0.4333848690731301,24,18,71,52,0
0.0020664851934611623,0.004654990544385218,0.2114022003925013,0.39445298206291773,26,16,61,53,0
0.0024537679692628704,0.005128792477589152,0.22730633590835214,0.35545257296990307,20,16,62,49,0
0.0024057684769129596,0.004912517461192564,0.21563631191768054,0.3580503604342327,16,12,63,51,0
0.0023405903571801583,0.004395510172480357,0.2236485871306282,0.34154058609809895,22,14,56,52,0
0.0022762808456757437,0.004349120463262064,0.21028875880608186,0.3241488051999783,18,18,61,52,0
0.0026151910033235487,0.004415156134800386,0.21279972040675454,0.3150275387727919,18,18,55,53,0
0.00267614310754118,0.004435193024536002,0.2158348512342864,0.28501128298507955,16,16,53,52,0
0.0027805743504751173,0.004125660186672258,0.22516691230004346,0.27040249655851345,20,18,56,57,0
0.0027112621488429678,0.004142182842556617,0.23022332001581824,0.28580641037936666,16,16,57,56,0
0.002234501763761954,0.003467670153310113,0.2138637998707049,0.2792347698831561,18,18,57,63,0
0.0020253784670970403,0.003252793718757032,0.19820170463236098,0.28969770425446895,18,20,60,55,0
0.004761961033886256,0.004718589177469465,0.4239358055621227,0.3896429639535387,22,22,53,49,1
0.005383995027263968,0.004653066360994007,0.4553303160951708,0.3892613419118953,16,24,43,46,1
0.004869275593649056,0.005396657791786631,0.4262902080262081,0.42392539073182595,18,22,42,47,1
0.004508741119649451,0.004811657244107379,0.3902094856720344,0.40337351101964775,16,24,46,46,1
0.004151828069643704,0.0045135249026023875,0.3712821992245024,0.42222501962986586,20,22,56,46,1
0.003479814209706693,0.004168085502645738,0.3424094606891704,0.4013133669959096,22,24,56,44,1
0.004347432394841303,0.0035838283138113127,0.44010627526259,0.3833910531506079,26,26,56,56,1
0.005237196884787797,0.0033290403960323255,0.4911243992336469,0.3509303237440625,22,24,51,59,1
0.00481668370523187,0.003748462891931114,0.4831824860067925,0.3425139927406538,18,20,54,47,1
0.005287054992914379,0.0037768917670577534,0.47804842494513683,0.32323404366763436,16,18,55,43,1
0.004957275683857964,0.003981345077378843,0.44335267326269695,0.31397700262807515,18,18,50,42,1
0.0047283842703711556,0.003586874237765889,0.42629515756811137,0.2901128843840033,20,20,54,40,1
0.0047165339060677575,0.00338063687627312,0.43805580155550916,0.27486464748514117,20,22,45,47,1
0.004484755772063058,0.0029777113451321152,0.42628500027556715,0.2609504613445722,20,20,43,59,1
0.003662368393421212,0.0026441208695110185,0.3495955858743722,0.22525698468381072,18,18,57,58,1
0.0029526761633110288,0.0029130019918791024,0.3160064840008186,0.24151440532267535,24,22,56,57,1
0.0026841234338665166,0.002409683721107528,0.2752596087485714,0.22042608648260487,22,18,62,54,1
0.002620471816013119,0.0025535915095433064,0.2850524066968303,0.21379621306162408,22,18,64,55,1
0.002755395385202668,0.0022556564430685267,0.2908956147126467,0.2090938521840277,24,20,57,63,1
0.0024121137309152042,0.001970076304112892,0.26939843750343606,0.18275408409809943,20,22,61,59,1
0.002282772764001338,0.0019136161333562246,0.26138598815422337,0.1800931142099202,20,16,68,58,1
0.002031278225831497,0.0015969391732584628,0.23794461073180523,0.1703011307159384,22,24,68,62,1
0.0018762937256012844,0.0016489805621941519,0.22338029190279432,0.1705244033034475,22,22,62,57,1
0.0018485056510106964,0.001384062397147627,0.21870687345270037,0.1567681776097578,30,26,63,61,1
0.000980850638340446,0.0008108549818857822,0.15389858327875716,0.10766429086761949,36,34,80,80,2
0.0009838816165367004,0.0007293726873596343,0.15336381482876754,0.09861661072154354,30,32,80,82,2
0.0008831360079938284,0.0006965553918280153,0.1387066792768168,0.09613041961011427,32,30,79,78,2
0.0009254739032859547,0.0005947623263796229,0.1348355120939275,0.08833764446358049,28,34,78,80,2
0.0009317710535668608,0.0006318175836928299,0.14074664859913807,0.08660307196188034,32,34,75,79,2
0.0008431162260653335,0.000676423465087963,0.12748432352676514,0.08632122334344225,22,32,76,79,2
0.0007892329570724474,0.0006689672734383752,0.12267832798044442,0.08467928284007778,30,30,76,82,2
0.0008214733496221443,0.0007014335842246506,0.12401773987703774,0.08700940361771986,22,30,73,84,2
0.0008284143952711847,0.0007223706553307763,0.12100153517296455,0.08813119906489356,22,34,75,78,2
0.0008458198155838,0.0006500053888579571,0.1209882698328197,0.08565649103716555,28,34,71,76,2
0.0008290151678496919,0.0006202795272860118,0.12623113430855754,0.08694164451715135,32,34,70,80,2
0.000899656789870459,0.0005922444075246706,0.130061269635528,0.08833468215789958,32,34,70,76,2
0.0008206515439312696,0.0005533500382319818,0.12879592821924588,0.08684183636252285,34,34,73,82,2
0.0008251532254815478,0.0006883160332424052,0.1349147285908308,0.0939336863664665,34,32,81,83,2
0.0008059586125957161,0.0006615984030099199,0.13062568237809802,0.08977297753033804,34,36,75,71,2
0.000802202604321504,0.0006487705013101778,0.13119015064187078,0.08761180453715796,32,36,77,73,2
0.0008284418951984549,0.0006609798594898894,0.12486529697811077,0.08349739904515369,30,36,78,80,2
0.000929012314832317,0.0006163439463822546,0.13353070103192555,0.07703414932386722,36,32,71,83,2
0.0009048812919901588,0.0006211954858041617,0.13457376748310468,0.08273513595547663,32,36,69,87,2
0.0009167300691534037,0.0006072271748867051,0.12802519455870917,0.08379172604470769,22,34,71,82,2
0.000925401361372367,0.0005899051256724398,0.13766799097603583,0.08300147062327855,26,38,72,82,2
0.0008572116330574138,0.0005447585678409061,0.12525789739473092,0.08511444113104073,30,40,74,84,2
0.0009454239138889852,0.0005340200606038437,0.12187306249013595,0.07544427405785353,32,38,81,77,2
0.0008628513015389736,0.0005775737603439468,0.12108247676968208,0.07617315920527316,24,32,83,73,2
0.0007031101400150655,0.005111512686729242,0.07549764098241302,0.3951277071629431,22,18,73,58,3
0.0006558256377050323,0.004742283183076424,0.07201780396189583,0.41608420558866416,22,22,73,60,3
0.0006918654726879369,0.00488157610163073,0.071796590362018,0.4395736127174049,18,26,71,55,3
0.0005537045537398278,0.003691598092161521,0.06629111906811815,0.3979737490736553,30,26,69,57,3
0.0005258177160694584,0.003856376578548993,0.06103933967749582,0.3840157601792237,30,26,67,52,3
0.0005271965277300045,0.0032876752695582133,0.061080188897629735,0.3815831097454928,28,34,69,63,3
0.0004448994273646044,0.002868967082126034,0.056508130240618765,0.34946114215427104,30,34,79,68,3
0.0004328525541567147,0.0026748903227255135,0.05395497554769589,0.34058969539793815,22,32,84,69,3
0.00036587069929239837,0.0028906962317916413,0.05073352001267421,0.34922061105971586,26,22,87,75,3
0.00037295001245089913,0.0029966933439655465,0.050670745837296,0.3437763908003764,30,28,91,71,3
0.0004033308995770779,0.0032152509727848134,0.05117136702848264,0.3579135358570374,26,28,77,67,3
0.00039503710161750943,0.0032530608673677175,0.05444483590857089,0.3596372009858194,26,26,79,65,3
0.0004152322720240538,0.0029856139254134306,0.05681093646419451,0.36449884632379304,26,34,73,75,3
0.0004212012770479223,0.0029187102287506587,0.05683246095042181,0.3534826218553742,30,26,77,68,3
0.0003676999750854301,0.0031279399923718515,0.05382431942279605,0.34927716441090245,28,28,86,65,3
0.0004026287271739926,0.0033415250479128977,0.053982532879713246,0.3450560338783387,26,26,86,62,3
0.00035877497982192056,0.002843847232630734,0.0549628454219081,0.31402918704763444,42,22,86,60,3
0.000364913124576178,0.0028652509784765317,0.05091712947229539,0.3097493681833404,36,24,86,69,3
0.0003292690173138737,0.002432371335719312,0.04924381189100697,0.3077037129506161,34,30,87,70,3
0.0003163282389996206,0.00276589752359391,0.04713978194430632,0.3047606352553014,34,22,88,69,3
0.0003090164158397939,0.0029774751652956034,0.04200067087733448,0.32601631150112304,32,24,82,62,3
0.00031273770576455346,0.002693023525916109,0.04222272991966054,0.311335960744738,42,30,73,70,3
0.0003171677282847236,0.002690349324143623,0.043295477941907,0.3012312601127343,32,26,65,72,3
0.0003487586274039452,0.0024032543908118435,0.04598245928136937,0.28659183502133345,36,32,69,64,3
0.0001597384171156357,0.00026048595812792544,0.014075170007204759,0.031255475978911505,26,30,59,77,4
0.0001594383578984772,0.000287444536025918,0.014300334852648141,0.03373692832127985,20,32,67,80,4
0.00016898172280372346,0.00031494854550202117,0.015053948247582915,0.035880207105957095,20,26,65,75,4
0.00017576598551994103,0.0002735746539960605,0.016372124970209786,0.03415277153158759,23,33,60,81,4
0.00016773663658587967,0.00025531602514968654,0.01506285832939213,0.034004939732602636,26,26,57,85,4
0.00016691677107737586,0.00027009854011283177,0.015734055839374456,0.03388186851509138,23,25,65,78,4
0.0001665082921883565,0.0002905231712061561,0.014231965075628114,0.029854319015633263,22,24,70,78,4
0.00016589747141901965,0.0002805316936058056,0.012654068847113752,0.033083656024209686,12,24,69,76,4
0.00016979259244582535,0.0002882869339857716,0.012629432239797433,0.03243107134883897,16,30,68,79,4
0.0001652139636546564,0.00029375290910160616,0.011843069386382488,0.030459336311224706,16,25,60,82,4
0.0003210516191669596,0.00031756598685315254,0.019870392419527212,0.035180209356651504,12,24,50,76,4
0.0003489496998247239,0.00033990792685151635,0.02141005800582799,0.03588366945577826,16,22,43,70,4
0.0008789822338699363,0.00080118512521773,0.04999235175423852,0.06661782306551196,6,8,40,64,4
0.000878931160337164,0.000863365875622683,0.05194770099530649,0.07962030711744378,6,10,49,64,4
0.0007797675074845866,0.0009718450825722217,0.04848713833326761,0.08788954434710815,4,16,50,64,4
0.00020945873255761904,0.0006106602337650712,0.02339316123605678,0.0747709419165859,33,30,70,69,4
0.00018947308668022518,0.0005329045900025036,0.021361481443920097,0.06773672768148112,30,24,75,71,4
0.00017901624346874955,0.0004997300329993067,0.019904367425100534,0.06041398964930546,23,26,77,72,4
0.0001760539269286912,0.000397018576242492,0.01973189493857377,0.053685907308100356,24,30,68,72,4
0.00018822806354595864,0.00039390846110545546,0.018260063340306283,0.05284198175210876,25,30,66,75,4
0.00020218856231854823,0.00038997576951383425,0.018713026209037985,0.04904478381577694,28,26,64,83,4
0.00018583697441182107,0.00036014232320134387,0.01900625702862458,0.046138636651256504,35,28,69,80,4
0.00018846209859947158,0.0003650760108892774,0.017873446980676767,0.048929747646136494,30,32,71,82,4
0.00017257936811145,0.0003133217586728362,0.01746136269911456,0.0397210427299793,31,29,80,85,4
