f1ch1,f1ch2,f2ch1,f2ch2,f3ch1,f3ch2,f4ch1,f4ch2,Category
0.0020015345055325513,0.00150033734009017,0.14248004449362842,0.11908334092521251,18,16,30,41,0
0.0022673262383285614,0.0024108956695077215,0.2068068261696245,0.2141491421827919,22,16,45,44,0
0.002331141155062124,0.0030722304611941055,0.2270254374075974,0.2870124497241287,22,20,60,48,0
0.00254559245344739,0.0039662008666655375,0.24795543325609132,0.38072695157023817,22,26,59,53,0
0.0023706361081735987,0.0043054989690080306,0.241592471822466,0.4502047604468413,20,26,63,50,0
0.0020753911408464163,0.003954216516586109,0.19810366563499912,0.4307911379469089,22,28,65,58,0
0.0018494618888064366,0.004575709337397815,0.19499780923551688,0.4593837796955186,24,30,64,52,0
0.0016687827083699549,0.0037249221883952355,0.1751451250846088,0.41745168228476487,21,32,75,58,0
0.0013863920166061164,0.0033765154042089845,0.16088313380591462,0.38213530512588384,26,34,73,61,0
0.0014098807890952866,0.0033991361858785978,0.17888339957856683,0.38412544874376947,35,26,76,61,0
0.0013513636783568177,0.0036718782523314205,0.17398054276392175,0.3587770601897665,30,22,67,63,0
0.0014779825342546007,0.0037991914347126382,0.1719140950006785,0.3762724063879555,38,22,68,62,0
0.001411851803934975,0.00392202038605,0.1765590887329104,0.391733061627019,28,24,68,58,0
0.0013254238350204227,0.004101857726978929,0.15688222189024598,0.40441632300999925,30,26,73,55,0
0.0014096827316861982,0.00396636214453174,0.1554338854803718,0.39698697259962135,28,20,74,51,0
0.0012837993635831726,0.003331628600037972,0.13982875633365535,0.37313928787502776,31,22,75,59,0
0.0014265123260425747,0.0037696441739478587,0.13081959847312308,0.3676947458959588,22,24,73,55,0
0.0014245100981789011,0.0031411298581296254,0.13191099487131078,0.3153279519336141,24,22,68,61,0
0.0012912981814841085,0.003671314133734397,0.12580113039281535,0.34820587865850294,26,24,66,60,0
0.0012946776119522893,0.0035127624655765712,0.13313274907885525,0.3258925272736653,32,22,72,54,0
0.001309689030134459,0.0028300333599689553,0.13932000076682138,0.2792655780294451,24,20,65,63,0
0.0012513288442864501,0.00348606431366655,0.13631573574257813,0.3299147417178422,24,20,72,55,0
0.0012147950929671982,0.0028880372317707597,0.12417114882702425,0.2833968505369309,26,18,76,61,0
0.0011235906300375604,0.0034082838890735706,0.11450972228434493,0.32915974694285943,28,18,61,59,0
0.0011981551224145867,0.0038729297688219876,0.11149252798441878,0.3672757178265429,20,16,67,51,0
0.0011980033923794636,0.003423029806388943,0.10815591424612524,0.34260876394648154,24,22,64,58,0
0.0011355295812167931,0.0033644331277052427,0.11269017039977705,0.3350913325320418,18,26,63,54,0
0.0011645845140089916,0.0029957618248964003,0.11479135899617168,0.2885042137019715,18,22,61,56,0
0.0011823341259225636,0.0037511407494808403,0.11601762398906268,0.30018253442526804,18,18,68,47,0
0.0012320840663986087,0.00354825772242796,0.1245971777816458,0.2913391971128053,24,16,63,51,0
0.0011963181194231483,0.003564434371999124,0.13056035590687332,0.30520291620224627,18,14,62,56,0
0.001173795305004139,0.0035346007676429845,0.1291391057535515,0.2973759604793624,22,22,64,55,0
0.0010489774845532497,0.0030666655334576436,0.11708126809624211,0.2876587264364868,22,20,64,53,0
0.0010367314823127038,0.0039317104419230595,0.11118347514971877,0.3151153881163843,32,18,69,53,0
0.0010305332487822228,0.0039481638621711385,0.10687479336315724,0.3286743010052877,28,20,68,49,0
0.0010412719976862987,0.0043659202207539695,0.10502006927119636,0.37353418382363096,34,24,64,45,0
0.0010549119607291364,0.004482111921794899,0.11039070666103709,0.41993862559451334,24,26,60,47,0
0.0011741224409747165,0.003856403019295489,0.11663400605790403,0.40680796739016223,26,22,58,45,0
0.001309689001562746,0.0038631811616733234,0.12999563812572393,0.39539399601969055,28,22,64,48,0
0.0019428607125759642,0.003800828914695292,0.16854452984782078,0.39422062572289157,22,28,55,49,0
0.002129703560736246,0.0039300947864128,0.18538584103289868,0.42341070304183787,22,26,53,47,0
0.0017873062689536378,0.003931180811149766,0.1866728745661844,0.41648138677569563,20,26,56,45,0
0.0014059211759844489,0.003318768915525438,0.1514410323361496,0.35973042054144583,30,24,58,47,0
0.0012530942542859302,0.0033870351755621625,0.14116180500452888,0.3459784330576253,26,22,58,48,0
0.0012198412490693465,0.0031700936729885227,0.13725162288057535,0.2854946954317318,30,20,64,49,0
0.0011295442001115152,0.0030232187051692184,0.12047664695855759,0.2719093034132412,24,22,59,59,0
0.00112175737070872,0.0035098494349246894,0.12701115688248785,0.3131884182685527,30,22,62,54,0
0.0012263849459937621,0.004184168885803951,0.12513854462377189,0.32110305366818714,24,20,60,53,0
0.0025656562227100994,0.004155739297856018,0.29270007228156064,0.4176225182052857,24,22,61,54,1
0.0034459299025185503,0.004212129639423263,0.4171355673959462,0.4554553725651611,28,26,57,53,1
0.00425080525380646,0.004033249124950328,0.5110777226888573,0.4495501551523948,26,28,59,54,1
0.004689902894118948,0.004157275895382281,0.5709558089376726,0.432409480421894,26,22,55,53,1
0.005183469399161859,0.003891412479907999,0.6163289237435281,0.396578365853765,28,32,53,57,1
0.006046833576138738,0.003950455555352485,0.6217137229012092,0.43395571749985623,26,26,47,52,1
0.005629116087561026,0.004178778504037143,0.5791346644891664,0.4304025152475231,22,20,49,56,1
0.005797773206449452,0.0035079388210323957,0.5471349720873067,0.4012105794678432,18,20,48,53,1
0.005039879575501754,0.0033494957710060447,0.49490495102884935,0.36714700208890605,22,22,52,62,1
0.004835752887350075,0.0026995664145590555,0.42818668454861253,0.30497043803775203,20,26,51,68,1
0.005125450704169696,0.00263412680814029,0.409285107076664,0.2721702492718708,18,22,48,62,1
0.004691374848604985,0.0022764600009456846,0.3737858769668642,0.26081279589434425,18,22,43,61,1
0.004101840083577091,0.002277714839036496,0.3253614790910698,0.24417842567618864,18,28,50,56,1
0.0036323193974954465,0.0020722481482792505,0.3204762149674401,0.22462837706975136,18,26,57,58,1
0.003406679454585044,0.0019035408054813815,0.3043116619631796,0.21044464960344073,18,26,62,65,1
0.003835235387348126,0.0017257171456662595,0.3312252094200517,0.1931251299655134,22,28,53,67,1
0.003959219149293463,0.001816748086807678,0.3632405314559037,0.2142446430823058,18,20,66,64,1
0.004207988912379564,0.0018238253120140626,0.3769482515519769,0.21868028033695391,20,24,58,57,1
0.003993092077224364,0.0020009784285833954,0.37270072829604445,0.23997593828787125,18,28,57,63,1
0.0039995260358770945,0.002149631598048741,0.3897919591983371,0.2635307471030359,16,32,50,61,1
0.003982506857686477,0.001982180867243496,0.3679567928604336,0.2548187337200266,18,32,48,66,1
0.003775777196174927,0.0018582606223345394,0.3629569184553177,0.25097324465348925,24,32,48,75,1
0.003595944546764121,0.0018422500800092828,0.3670698061351291,0.23250596264470214,20,36,48,70,1
0.003489655467643181,0.0016328521196778865,0.36969722345287676,0.20129777343852717,24,30,54,81,1
0.0029926775090911907,0.001705922847076685,0.34191153764451676,0.19611532910274895,18,32,56,75,1
0.0030887571864118253,0.0018053014700946835,0.334990228556668,0.20683317500757467,20,28,45,74,1
0.003180974917107461,0.0015720006246051626,0.3227150612601922,0.19360858438964088,26,28,52,70,1
0.002684513789954944,0.00172730219129199,0.29306655476726723,0.2159966355454228,26,30,55,66,1
0.0026057196372146784,0.00185788443696936,0.28630080540960495,0.2199796682467074,26,26,61,68,1
0.0031880327744650576,0.002087011258652308,0.3233877150129761,0.245442879314106,26,18,58,73,1
0.003341002204200671,0.0023360346971648617,0.3290723371083661,0.27618127649647406,20,26,51,69,1
0.003295688241306341,0.0021848262202750256,0.3275975741763266,0.24940851653013937,28,28,50,66,1
0.003274852970801309,0.0021724388977750098,0.3461394211878819,0.2551145024523397,26,30,54,69,1
0.002969604430614869,0.0018476010076759223,0.3120653255475989,0.22583856273368802,26,34,57,68,1
0.0029730836497505013,0.0020803090176772987,0.31105293639314374,0.23060937493932027,26,26,59,61,1
0.003049923238458021,0.0022080858078048584,0.31168507617930435,0.2566776171403766,26,28,51,69,1
0.0030903964221424968,0.0023121552237180456,0.32444883541390723,0.26010373048719215,26,26,53,66,1
0.0034685764475945423,0.0023625419167841995,0.3549323960670902,0.2813999349781671,24,34,52,64,1
0.003291355926236007,0.0022104743245427616,0.3453168764752526,0.2872641157281364,22,34,60,69,1
0.004330192694554518,0.0035825315572958548,0.3876328067094374,0.3397389316445378,18,20,57,57,1
0.004283168964003337,0.004680237033774743,0.367901476524241,0.3994691850301767,16,18,65,50,1
0.0043778849236099345,0.004825505089928046,0.37703188527522474,0.4224766283019547,20,20,59,53,1
0.0032916633289223466,0.0043578382804197666,0.3270524211303086,0.40424135862508287,28,20,65,55,1
0.0032058624963077426,0.0036429981946415036,0.32700263103825516,0.37738637724074986,24,26,61,63,1
0.0031641051048478617,0.0023250940393007903,0.3445191398029511,0.29371485708017686,28,30,59,71,1
0.0027955878313050105,0.002267297802946957,0.30359676808217706,0.25317391631587804,24,36,59,74,1
0.0027832877601693083,0.002107292021111271,0.2778060309470997,0.24002275401077314,30,30,66,70,1
0.0022755822196873325,0.002211706951631514,0.25180176616082345,0.23320696705582994,22,20,66,71,1
0.002381557732805373,0.0008872534702325369,0.18007565799919234,0.10322704150339414,16,26,40,79,2
0.0031523028348819414,0.0008200408278971032,0.23352711848174582,0.10508772191019378,16,24,47,86,2
0.003423073592351349,0.000988201543689016,0.2697439700016488,0.1224805458571928,16,28,43,83,2
0.0032244899684545185,0.0015387986667985056,0.26909345318273453,0.13579117703353127,14,18,48,71,2
0.0027847129977315553,0.0016001850932487115,0.26701318044834227,0.1478912332209987,26,18,52,68,2
0.0026722162550960877,0.0017920603294599435,0.26363263226287886,0.16732162733467815,24,18,55,68,2
0.00217197398145903,0.0019253901239872995,0.23277879033237278,0.1643224744787027,26,18,62,63,2
0.0019732168245749694,0.0016527583111421134,0.2203777644198988,0.1596551951301498,20,14,68,67,2
0.0019335880520750398,0.001542328826226782,0.22748199433086455,0.1654297969816639,18,18,72,73,2
0.0018754117985573444,0.0013772983714234344,0.23733663031325755,0.15762359596861727,22,26,76,74,2
0.0016986572752488124,0.001361225245752683,0.22754310735637723,0.16292149049388113,18,26,74,80,2
0.001893286691833061,0.001381659690299432,0.24643710135181773,0.1614499449731022,20,22,78,81,2
0.0016858947749350595,0.0014133127605577913,0.20738872532228927,0.15630741224975567,22,24,79,84,2
0.0016343117996209455,0.001370813504866436,0.187056781979276,0.17430697085216304,27,22,80,92,2
0.001457850163725813,0.0013439545964083503,0.18400690529853578,0.18572629274714209,34,24,78,92,2
0.0014596627060687892,0.0013706823864962398,0.17364442632338228,0.20235434618150536,27,24,68,93,2
0.0016381248830026384,0.0014227638565481495,0.1905097573691142,0.21084557781922664,26,30,79,89,2
0.0015730409187037838,0.0015092501370790807,0.1939744994067455,0.19947036914604996,36,26,79,78,2
0.0014680101827960518,0.0017109725256795579,0.19064149961884272,0.20377465265129327,28,26,80,73,2
0.0014368369232688083,0.0016620023550805222,0.18952126620871015,0.21411805304976717,24,36,85,78,2
0.001382896524872072,0.001798123504087928,0.1766818175254717,0.2272773595578863,26,36,78,78,2
0.00134807208560594,0.0019437696480012938,0.17171755340271477,0.22119018065139576,31,26,77,75,2
0.0012701964998792393,0.001729219598110096,0.16509712828759762,0.20202764621188177,24,26,78,71,2
0.001331192430237973,0.0013500929025046181,0.1530179901480051,0.1661709721592279,25,26,76,73,2
0.0013112621072081361,0.0011637989332109815,0.13845926440495576,0.14065485548011378,16,26,72,81,2
0.0012215504056288728,0.0012196104143183542,0.1364610256109152,0.15339043435543787,25,30,72,78,2
0.0012914798587931133,0.0012760440731950185,0.13638056886080757,0.1549778153256051,20,30,69,70,2
0.0013478761167252157,0.0012043600632388692,0.14833557733966188,0.15982738562934484,25,34,76,80,2
0.0014231572727609403,0.0012921914834861151,0.1628455789122477,0.17111368887636616,26,28,79,87,2
0.0014281146447254873,0.0011677484099102734,0.16157031996849244,0.15457422844545568,25,26,72,82,2
0.001391712799205595,0.0009582953900323004,0.15618583721848073,0.15254685409041044,28,32,81,82,2
0.001291111011152435,0.0010364193240314,0.1457640966367666,0.15395221737160958,29,30,94,84,2
0.001173604964569994,0.00108278833121798,0.13602182476114177,0.15119644134080992,30,38,92,76,2
0.0013242077421088468,0.0012075492138198577,0.14473179693849259,0.15696492988196614,37,30,80,72,2
0.0012689974080865528,0.0012514640348695889,0.14360255630249805,0.15509574311251753,30,30,74,72,2
0.0013675731621017057,0.0012703798533992541,0.14706607728814472,0.15060447086655745,41,26,74,70,2
0.0013794578190487966,0.0014304926664386666,0.13686112599169142,0.1549498703087357,30,20,77,76,2
0.001315527752325521,0.0013913876223883858,0.12716376942814892,0.15314131167649583,29,20,76,78,2
0.0012115061351327644,0.001242952278471235,0.13316362697499573,0.14854820662113472,32,24,80,78,2
0.002799257102937924,0.0011508632181001246,0.21617917650332474,0.14559022287142864,14,28,65,84,2
0.0035799023771381994,0.0012906644228712376,0.287473502283773,0.15322919281765723,18,26,64,80,2
0.00411565586370886,0.001484054415847101,0.334961385899475,0.17719923331550283,22,32,60,84,2
0.002942810921232824,0.0016707423062191135,0.3370426137091436,0.20622133513306726,32,22,60,81,2
0.0028709766815740345,0.0018741055086018829,0.33595657874850615,0.2301402888265272,26,26,56,78,2
0.0029781347089362768,0.0020532949420190086,0.30759269863924593,0.25366626033054535,30,28,51,71,2
0.002451884247358703,0.0017892975176276404,0.28257488475183723,0.24042485869596392,24,32,62,76,2
0.0026219373854132473,0.0018652210176232046,0.27657840251718474,0.2263576447085988,27,30,60,76,2
0.002481437135835663,0.0017239688505824708,0.24660580528292728,0.2068091138571538,24,30,63,72,2
0.0014036816475342501,0.0005190022219207959,0.08689553280847787,0.04934820387915322,18,20,22,52,3
0.0014008098356058343,0.0005374913161523377,0.08771141722537985,0.04808486635743107,20,22,20,54,3
0.0014055656207139914,0.0005402789910936683,0.08778624592966526,0.05033673625126662,18,32,20,58,3
0.0014021338510119402,0.0007540219976008339,0.08822694694932358,0.06899746425111716,18,24,20,57,3
0.0013898771986683232,0.0015311289375903015,0.08939883852312416,0.13618443313087597,20,12,26,64,3
0.0013965667517786937,0.002398780899379393,0.0978289481966462,0.2647390690730975,20,18,30,63,3
0.0014225265395948674,0.0035328162034469817,0.11125116351757085,0.4396944288750667,18,30,41,69,3
0.0014021654454974871,0.00401755071305174,0.12675222112711948,0.550813561576545,18,34,44,72,3
0.0013416938633017844,0.004773923422805717,0.1262538455648403,0.6140651980948431,24,30,54,69,3
0.0011950920767158481,0.00440203960981306,0.1171216643100868,0.6513197283567321,26,36,68,66,3
0.0012695598958328775,0.004934251673903106,0.12423830154132301,0.6236870387791128,27,30,64,64,3
0.001317044899026553,0.005630294879450065,0.11733906840353445,0.6771699266003026,20,32,58,62,3
0.0013224040837759052,0.0051874739063770695,0.11842904297371286,0.6925210356142484,23,26,62,66,3
0.0013128267993141925,0.005185196326872371,0.12097048033009627,0.6837275222026639,22,28,64,69,3
0.0013107133826040862,0.005333330374440132,0.11593869138581561,0.67268360117893,25,28,62,68,3
0.001348897790305668,0.004759898743170982,0.1163319055405364,0.6396491276324952,20,26,66,70,3
0.0016193711386419047,0.0053362694091770154,0.1272004900602873,0.6570633984967461,27,28,57,68,3
0.0015503236881342641,0.005288753012332988,0.12808341311565397,0.6719325790374244,20,24,56,68,3
0.001584993480091491,0.0049295211482916455,0.12857525456235358,0.6739534010568946,27,28,48,65,3
0.0014859518796109378,0.00490849168506904,0.11773051034387637,0.6774675768633356,20,36,44,64,3
0.0014533815886598547,0.0051501484289515655,0.10813617744634806,0.6641545673985769,25,32,40,63,3
0.0015211797168656169,0.004669899205807013,0.10074795731863648,0.6006931235651044,20,28,44,69,3
0.001421262180936554,0.004933906174150217,0.09957023786369429,0.6004892104756463,21,30,53,75,3
0.0015221311948693072,0.004938165522687631,0.10456632720981675,0.5904875672553602,20,26,54,77,3
0.0013657151886749483,0.0046698213737653045,0.10631489124895722,0.5835775217755917,19,26,58,78,3
0.0016380707893393046,0.004772607253781589,0.11206412593725774,0.6122750445981482,16,26,58,73,3
0.001625360451974562,0.00474220475036049,0.11566817448832348,0.5883943881925195,23,30,61,70,3
0.0015744761689607447,0.004131098152178304,0.1145059382030771,0.5511262483646554,18,30,58,69,3
0.0016223789067078315,0.003974777020622281,0.10995938765033636,0.5407836584407124,17,32,59,65,3
0.0015586448963552677,0.004579772341096165,0.1156678764957698,0.5695706701583118,22,30,51,70,3
0.0016257233121813345,0.004852529631840161,0.11591469080078227,0.5599754001020617,27,26,58,68,3
0.0017140050470192472,0.005355049184774701,0.12016566094455809,0.6236231210007043,24,26,50,67,3
0.0018531143203764891,0.0050351055958750045,0.1303025432262315,0.611138797103248,21,32,44,68,3
0.0018353165776442719,0.004697271258632709,0.13079374907507177,0.6029534164475205,18,30,49,71,3
0.0018974309223873276,0.004374662217281794,0.13551538751947179,0.6302733202054871,19,30,53,69,3
0.0019177824888073113,0.00520588333778082,0.1300753669804692,0.6141747249391952,16,26,51,68,3
0.0018350070531903166,0.005394193582292197,0.12395531046085766,0.6194220092177268,23,24,50,63,3
0.001880037560260393,0.005461493823625938,0.12397168706126613,0.6151754814048717,20,22,46,64,3
0.0018805065477454721,0.005520270808989845,0.11985542038743369,0.6467308309717302,15,30,48,66,3
0.0026027136453695217,0.005008705761155717,0.18014712610130895,0.6549025644323578,20,30,33,72,3
0.0027599534995909,0.004853384623285049,0.20675347365174548,0.6870667138591141,22,34,31,72,3
0.0024052553276286384,0.005429669312895498,0.1928062565634482,0.7707038855545824,22,26,38,70,3
0.0016587398006662776,0.005820389290394228,0.14300097245352472,0.7786329981508926,18,22,52,63,3
0.001586657804118664,0.0064732958804603995,0.13523683229663547,0.8412338331474909,17,26,55,59,3
0.0014359282184497233,0.005947993510216765,0.12274448368788739,0.8085411892838551,20,28,56,61,3
0.0013550191912283975,0.005528063430646688,0.11377641158113062,0.7478518099783023,21,28,58,55,3
0.0013754930204834127,0.005691712993626387,0.11094584528678225,0.7689761323121669,20,30,55,60,3
0.001496656761812393,0.006045173726737582,0.1130975717275643,0.6736801727311745,23,22,52,57,3
0.0011164400986320717,0.0005225261680244376,0.060535478300128114,0.0366335028799328,17,19,20,50,4
0.0011223231059022207,0.0005209496391085138,0.061053498213739614,0.03686778341904507,18,16,20,42,4
0.0011453997395075078,0.0004917524422971755,0.06109188526516349,0.036878192772172386,17,23,20,46,4
0.0011502583478734815,0.0004923524913035642,0.062144843935483474,0.03758032634768811,18,18,22,44,4
0.0011457510429851137,0.0005025931764654955,0.06167746170920502,0.0381495343141081,17,21,20,47,4
0.0011539779640209879,0.0005517524717083842,0.06216956368452194,0.03866014233225768,18,22,20,54,4
0.0011609925430360938,0.0004954432117503061,0.062166542398664225,0.037251783094770174,17,23,20,47,4
0.0011748629782464268,0.0005125423344291796,0.06216113467851604,0.03634250916255104,18,18,20,45,4
0.0011780827206003775,0.0005257474791426282,0.06295512370136923,0.03620129077279976,17,23,20,52,4
0.0011875335573201648,0.0005340629763759212,0.06273926553649516,0.034772211751150264,18,20,20,40,4
0.0011989605424424107,0.000551133416838092,0.06340703126284239,0.0376920697361545,17,23,20,44,4
0.0012098418687488338,0.0005770762166193393,0.06358558482001629,0.03836027583104255,18,18,22,41,4
0.001244104477540741,0.0005700953663573062,0.06487763695152032,0.03878269001802168,16,17,20,36,4
0.0012523872023774585,0.000615679645527315,0.06526884252888698,0.04061126106011809,18,20,22,41,4
0.0012781627625306458,0.0006084206505143904,0.06686119585623057,0.03958643342013347,16,19,20,42,4
0.0012774567092965023,0.000638272492782925,0.06691491695377781,0.04303019585557384,18,20,20,50,4
0.0012153645747410647,0.000670055428262851,0.06488305883893414,0.04325808219481215,16,21,21,42,4
0.0011578085629838732,0.0007013767449980523,0.061402049088604915,0.04306019339149711,14,18,20,43,4
0.0010820786946972526,0.0007034955732223243,0.05674804370193767,0.04394101917431584,16,19,20,32,4
0.0010104516743112927,0.0006979120396158945,0.053142208194251334,0.04263873554172884,16,20,21,34,4
0.0009736417419963482,0.0007057207467864937,0.05088123419485152,0.04244671496612365,16,21,20,43,4
0.0009568572903421203,0.0006907359954200737,0.049937666128316904,0.04494087233393261,18,22,22,42,4
0.0009323399015565574,0.0006859955244004743,0.04888306624778753,0.04536026978330553,16,19,21,45,4
0.0009062487006084021,0.0006779070233236434,0.04756497856263023,0.043648396850665724,18,16,21,41,4
0.0008994298349109041,0.0006924445874544073,0.04669628017563282,0.042185058522070835,16,17,20,40,4
0.0008881958995276163,0.0006588664422235005,0.04618516742682526,0.039986027160327564,18,20,23,36,4
0.0008899541923710813,0.0006931098053637213,0.04540756340797512,0.03999306632656955,16,19,23,36,4
0.0014909988734344679,0.0013092625857817372,0.09182055289095206,0.07860749269750951,20,18,21,31,4
0.0018548243307292107,0.0018462408713086826,0.12156861918872275,0.11726637468368517,20,16,24,39,4
0.0018630049361562692,0.0017025562987402854,0.11826659795727394,0.11600548241351293,14,12,23,49,4
0.0015962669351786143,0.0013580148395775967,0.09251739157805737,0.09885924388726194,12,12,23,58,4
0.0014182242198773301,0.0013143796188085615,0.08415465058301808,0.09734743426940198,17,13,27,58,4
0.001041318447116351,0.0007125858336679069,0.06009355904073195,0.06726699289056598,18,24,22,58,4
0.0010776927979732163,0.000586919473357181,0.06158173266698321,0.05766018678185654,19,18,20,68,4
0.001116930030672607,0.0006125141867350094,0.06245226913159623,0.054203080647244765,18,18,20,64,4
0.0011564397152541996,0.0006101368294477366,0.0644480704228366,0.05391224583878088,17,28,20,64,4
0.0011706155675400005,0.000618839606742451,0.06570244236423015,0.054780594086795815,18,20,22,62,4
0.0011806460125250904,0.0005733696292041422,0.0655209345610587,0.054679967602020874,17,24,22,59,4
0.0011940744489466598,0.000607064797550969,0.06609877044700588,0.0567984757676548,18,22,20,58,4
0.001203078950472251,0.0005278114629897079,0.06479781384583483,0.05107164923503,17,24,20,54,4
0.0012113593026669772,0.0004866562821037025,0.06561753334129365,0.046516286091439346,18,28,20,60,4
0.001225234429802605,0.0005123897623219747,0.06625105374893059,0.046482802275016326,17,26,20,52,4
0.0012225591962461554,0.0004969598004735792,0.06604329710717517,0.045050790440326914,18,28,20,58,4
0.001243613468731052,0.000501507212791204,0.06656322910183558,0.04086941995900685,17,26,20,58,4
0.0012514879620912237,0.0005705708490536226,0.06668557776913793,0.045125645496088204,18,24,20,52,4
0.0012691105023202476,0.0005713221547757011,0.06734918088570098,0.04419883714984116,17,21,20,56,4
0.0012748498711198165,0.0005317744908072722,0.06804670799861459,0.04379085838777315,18,14,20,56,4
0.001278261919321956,0.0005687554134886855,0.06795291104625567,0.04571544068462228,17,21,20,54,4
0.0011580618739790273,0.00281152098388032,0.1251450943857424,0.29135831448713706,28,24,66,50,0
0.0011965249316921466,0.003028526312190374,0.13764254550235575,0.28805390176066553,36,18,64,47,0
0.00131323555456435,0.003100828795695892,0.1423516216227224,0.3140311688333992,32,28,65,47,0
0.0012662399166775366,0.0033424842166605907,0.14749761525015603,0.3480838445398276,27,22,64,48,0
0.0012809613789343216,0.003800704977738654,0.14397829592364364,0.3709908888024667,26,24,64,46,0
0.0013648131086079908,0.0039002684885747676,0.1415364170892688,0.3901523892138355,23,22,66,45,0
0.0012789493952765133,0.004085091936727784,0.1374266410296637,0.3894605898980371,20,22,62,46,0
0.001181010477828073,0.004045669672643166,0.13435313315660768,0.37898931244298173,29,20,66,45,0
0.0013469751228620164,0.0036110087489795682,0.14444913144959654,0.3349728566110112,24,18,65,53,0
0.0017229042884460422,0.004124415908656762,0.1785250936985953,0.3587591852698215,26,16,61,62,0
0.002012385501820433,0.004748379375994295,0.19750377643480563,0.3903726434986309,18,16,60,59,0
0.0018202417022533618,0.004356458693240217,0.18852772968041198,0.39074972569312166,24,18,65,60,0
0.0014937467810163152,0.00449901199811107,0.16370341202341568,0.40759280327232733,28,22,67,56,0
0.0015739912583577226,0.003785506948055985,0.16847905662314414,0.35410495720089,22,22,62,56,0
0.001395151765885501,0.0034615088376130543,0.16313129595044845,0.3256526716049429,23,22,58,46,0
0.0015375859253221294,0.0030173454354199313,0.16118145179907747,0.2900807340598531,18,18,54,56,0
0.0014359320720556306,0.002733069357714135,0.15648292387444576,0.26463582494683324,21,20,59,59,0
0.0015069516247208797,0.0022854532700416633,0.14130311100735524,0.222750813625201,20,26,60,57,0
0.0012853653958452998,0.0019612401335019755,0.12558572766895415,0.21336984664989606,23,28,62,65,0
0.0013196582669167838,0.0024439836172598585,0.118817848796989,0.23213473945467616,16,22,60,61,0
0.0012718028863027242,0.0020624776499932264,0.1218335207451371,0.22355223166720456,23,24,66,62,0
0.0012979869301352558,0.0021843497546397083,0.12544296504087077,0.24246731232173355,18,26,61,63,0
0.001227334751656697,0.0024200054325811994,0.13296940243552893,0.24759554964514308,27,20,56,57,0
0.0013456662069706268,0.00222277360002929,0.13796477673463609,0.22897357067044435,26,20,59,53,0
0.001249634086483818,0.002247682559451037,0.12461572637108007,0.23808773320042037,27,20,57,54,0
0.0013267530293992965,0.0021426318973217823,0.12148153323659508,0.2227518130271734,20,20,62,59,0
0.001248463189972804,0.001987288495559183,0.11797389316889768,0.20760172880958427,23,22,70,55,0
0.0012283841943724364,0.001983051050323753,0.11534795187365865,0.2054750798636961,26,24,65,60,0
0.001095584006718932,0.0019165458745459803,0.11308905067960014,0.21033203225276884,27,24,67,61,0
0.0013701701112728002,0.0020514681322549126,0.12023989391645931,0.23607688648739433,22,28,63,55,0
0.0013498298204991958,0.0020260048551614175,0.12093107165911195,0.25336484532309855,21,30,65,51,0
0.0012576779747494205,0.0020502371162037796,0.12439416528174572,0.24659924793559979,22,26,65,53,0
0.001176611254281719,0.0018723866022235475,0.1204225428904435,0.23119189319155356,29,30,66,49,0
0.0011359803743384907,0.0017220378442815607,0.12323091913264088,0.21595819137419356,24,30,62,54,0
0.001125482703037212,0.0018124814786578344,0.1189233133812382,0.20791191393192188,29,28,60,59,0
0.0012731518530473241,0.0018695776190369225,0.11385375578443677,0.199866913670319,22,32,62,62,0
0.0013127197537932318,0.0019119973159659404,0.11150064191388817,0.21884660423253655,21,32,62,62,0
0.0012324309125041253,0.0019624634457764255,0.11342352564261995,0.21845138958713892,18,30,57,59,0
0.0011951795935360107,0.002121161064533348,0.11354651701171087,0.236761720945911,22,28,58,53,0
0.001303042452693543,0.0022187672680736683,0.1208260473498146,0.24083918017804673,22,24,59,49,0
0.0013322840158155411,0.002360812347856351,0.12166368298288935,0.23363604722243797,25,26,62,52,0
0.001318318929741795,0.002222407751447804,0.11524855060182287,0.22303149460062469,20,24,60,54,0
0.001212866167234693,0.0023228763258981698,0.10874004981202288,0.21302321258258924,26,26,60,52,0
0.001228373399111372,0.0024216062741383034,0.11285345561779593,0.21646044298207887,18,24,55,62,0
0.0013100541298294449,0.002415690648771394,0.10940670976348538,0.22156908959731317,20,22,60,62,0
0.0013033995351758654,0.0025380831498923867,0.11309937333219834,0.22783420076765598,20,22,55,53,0
0.0012951145674509562,0.002529155524647935,0.1207945041689235,0.24237063529217862,22,22,49,54,0
0.0013315171309354937,0.0022326766972809936,0.11798506666795583,0.24483711168762987,18,24,54,49,0
0.0014138877611842608,0.0026522878105833224,0.12357471205160621,0.25336534000992134,20,20,50,51,0
0.0023621595298758172,0.0019348451604716149,0.22898577724888144,0.20221628602875763,14,16,53,64,1
0.0023108523334013213,0.001774920456542677,0.21281907963949076,0.18256356871396445,14,18,55,62,1
0.00252267439246591,0.0018803705341993398,0.20955796345982877,0.2026509296971536,13,22,50,56,1
0.0028028161841285506,0.0018970297332988246,0.23478440566915376,0.2061312233607647,14,24,44,59,1
0.0030126931470941887,0.002010266486586105,0.2493098326232003,0.21381151010579125,18,22,48,55,1
0.0036236717069959767,0.0021162232815004666,0.3021007832913317,0.22795475284590155,16,22,41,60,1
0.003414514528379705,0.0021532786222625243,0.2711000460175962,0.22424497490771533,18,24,51,58,1
0.0032212056308709076,0.0019296504105458354,0.2764328281141696,0.21079996656420227,24,18,59,65,1
0.0030149125183132367,0.0019107152370311203,0.2628931064907411,0.2135343255162722,22,26,61,67,1
0.0038378138317527338,0.0025761848168480744,0.3396620083824575,0.2741530488172926,22,22,56,72,1
0.004039075542528381,0.003950536398710411,0.38604953580198,0.3426188357447435,20,12,59,60,1
0.00432455808972636,0.005095958397143019,0.39226265639799357,0.39378530565522024,16,14,59,57,1
0.003922225290623731,0.0051221069573785935,0.3645695659570493,0.3955501872304457,18,18,56,59,1
0.0031346231381568727,0.004611470421566632,0.30519210317417217,0.3958843538362691,18,20,58,54,1
0.0035230775352779937,0.004139938618542769,0.2814271917398778,0.3753546612482429,12,20,57,60,1
0.0038140074925155716,0.0042240522854944135,0.3288220185524481,0.3908391328427359,16,22,52,53,1
0.0037731009498141433,0.004433464522893165,0.32907135428650686,0.39127614095290403,16,24,53,49,1
0.0043766942694212765,0.0039339151866558935,0.3658264286428315,0.344824330777059,16,18,50,59,1
0.004334622793751585,0.0034931386514606617,0.33041529160279604,0.3230109924459368,10,20,58,64,1
0.0033156628704800505,0.00269923044693701,0.271267961868093,0.2673413356520091,16,28,58,70,1
0.003203302806292746,0.002459484783927169,0.27976413333893435,0.24718390292300532,18,26,53,66,1
0.002939526041264216,0.002228055609374531,0.2523638890730778,0.2297805552363933,18,24,50,64,1
0.0035295344905259003,0.0018353426884914043,0.25965434036374646,0.21034951217409117,16,26,57,63,1
0.003087794462539616,0.001814535776561618,0.24331806669185352,0.21009948423098795,20,22,53,63,1
0.004260941514591764,0.002243820733255717,0.3092160844305364,0.22610219003440676,16,18,43,65,1
0.004613285133495873,0.002453486474055059,0.3471977015348593,0.23687444299181867,14,20,38,62,1
0.004325622483324183,0.002660752065557086,0.33965650792320523,0.26974197776162706,14,20,41,57,1
0.004376506970283068,0.0025066518509338966,0.3480926325348743,0.2580314952798378,14,18,50,57,1
0.003426426220529943,0.0022726946126953532,0.3016915428997434,0.2363800261365954,14,20,52,65,1
0.003095328685715292,0.0020835819170230796,0.2746563595951911,0.21528453133477535,10,22,53,64,1
0.003759843569692429,0.0018860985616842194,0.29656518442844115,0.20106972386286695,12,20,42,68,1
0.003505048225553553,0.0017405592033716498,0.267957264738771,0.19420385632978207,14,22,38,69,1
0.0028717792980591044,0.0018397858838862195,0.22155706935650477,0.1949061178757379,14,24,44,61,1
0.002357619844243006,0.0018196621920687458,0.1831356480546428,0.20104523414134293,12,28,50,60,1
0.0018471668589226736,0.0016687784810958096,0.1549383289242874,0.20146503021960788,16,28,56,66,1
0.0021454802234389414,0.0018486000003396768,0.1845323954096516,0.21587818443823717,15,26,55,64,1
0.002158929169824877,0.0021445596452501605,0.20622818806822732,0.2352364370399541,18,28,55,72,1
0.002225040051782583,0.002107999469826348,0.22123806797325724,0.2475985234522641,18,34,52,67,1
0.0023242444912270847,0.0022838068607157797,0.23193386313163522,0.25707475754491693,18,24,53,67,1
0.0020904379552829084,0.002228524815445386,0.20137698568553453,0.2560430724916036,18,22,55,68,1
0.0023669643400322155,0.002100317235503465,0.22780958290418538,0.25742696585764835,18,28,52,68,1
0.0025685808655932507,0.002183919781111073,0.23371224993384979,0.25208455899766297,20,24,52,68,1
0.0027016713179629378,0.002060322958034338,0.24044766443547164,0.2418713712295462,16,28,55,68,1
0.0026306278626851815,0.00220465278026585,0.23519355647205745,0.2436432329407903,14,28,50,68,1
0.002418193033253428,0.001849346031950026,0.2094256908302899,0.22060126911056807,14,32,53,65,1
0.0024923503642795717,0.0018120130923734352,0.20132895093022357,0.2167671955428302,16,28,49,60,1
0.002543460145843124,0.0016238643505637352,0.2041197044081724,0.20646700221446565,16,30,45,61,1
0.002798193697583646,0.0020109690522414907,0.21289670562684376,0.22241002296813145,18,28,47,60,1
0.0026260719889323707,0.002018229338517835,0.21413525585544835,0.24109615688683428,14,26,47,59,1
0.0015335776297869064,0.0007025408570448662,0.12569661626030598,0.08902676479914293,24,31,52,93,2
0.0016615265724376248,0.000731593518212127,0.13874422728877814,0.09470908823536321,20,28,60,88,2
0.0016360913416614644,0.0008355761335576366,0.12975035641307123,0.10069654141811858,14,33,61,87,2
0.0016250703195626968,0.0009320066120366956,0.13050587054769194,0.10716133615595858,26,32,57,84,2
0.0015934535704455214,0.0008691918123550197,0.13859192982027835,0.10708790839379236,26,35,60,81,2
0.0016362216440311305,0.0008098165572637342,0.12750899580467595,0.10084570658795755,18,30,57,92,2
0.0017640891574606749,0.0007900294553645358,0.13449665226184204,0.11028108379993139,18,33,55,96,2
0.001815367853512246,0.0008885846300684056,0.1337291271920663,0.11112583892124597,18,26,59,87,2
0.0017021970405069018,0.0009195995394961077,0.1340447398319368,0.11952648050999659,20,32,61,86,2
0.0028564924660528864,0.001407642386761321,0.21004283807596505,0.15948773140153794,20,28,50,78,2
0.003013160018261322,0.0015055369140699135,0.24553201151381543,0.16598516436960475,20,22,57,84,2
0.0026851421515876124,0.0013928831285242365,0.25153035074192814,0.1781500554181205,22,24,61,81,2
0.00203548115846662,0.0015999129447102306,0.24372056340811085,0.17635814836870226,24,24,69,79,2
0.0019235654407132553,0.0012456789923906344,0.2197666428087635,0.15496934347309727,24,27,69,82,2
0.0016604340216584915,0.0012152614220762251,0.213096684023309,0.15396610683784132,30,32,74,78,2
0.0016130434333241816,0.0011544409075556308,0.2011559455020057,0.14131264280214598,33,34,72,78,2
0.0015470651511431594,0.0010876161609970686,0.18273063111211016,0.13321020591753288,32,28,70,72,2
0.001605318502982072,0.0010624561551069458,0.1778858761425697,0.13881650060689135,33,30,66,76,2
0.0015727927862270372,0.0009803310274795907,0.15894333630740293,0.12308958695683453,26,20,71,78,2
0.0016648376774429752,0.000822810595756379,0.15099058167651072,0.119710817730699,27,28,71,85,2
0.0014719328799102339,0.0008176497911410983,0.14456160050845865,0.11380505781121002,24,30,76,91,2
0.0014592129112756156,0.0006830763357890624,0.14013355863769023,0.10393736100801956,24,40,74,90,2
0.0014708567433531724,0.0007400235609205444,0.13320627302546043,0.10434091691615915,18,30,74,90,2
0.0014876971816766447,0.000818545418838342,0.13356409583142623,0.10315643785974768,20,32,70,81,2
0.001545187627322397,0.0009112303601820752,0.1308719258775007,0.10314967783221993,20,28,64,81,2
0.0014572401579004356,0.000997651374022097,0.14705001572153537,0.1084307193463524,20,25,75,83,2
0.001563756892856834,0.0009666205432050047,0.1605316624517811,0.11103705286230493,20,26,72,81,2
0.0015094673982514102,0.0009370846482621382,0.16392073142260524,0.11578879053245222,22,26,69,90,2
0.0015794698152426935,0.0008957001803836586,0.16798381492199338,0.111665014272385,18,24,74,99,2
0.0015901124097247778,0.000708755834360754,0.16134393858890486,0.10984303907915387,26,30,71,90,2
0.0015072945720069895,0.0007443399365996363,0.154072226293535,0.1075942778953262,22,24,79,88,2
0.00157188898652513,0.0008226838498124533,0.14799339492234054,0.10710007658705388,28,22,80,83,2
0.001479329198261725,0.0008506606937939616,0.14350125009134676,0.11028975738188715,22,22,72,77,2
0.0015185737104192493,0.0008905865924012726,0.14930411165683088,0.11045154760000106,23,25,71,83,2
0.0014511959921904266,0.0010312997273889371,0.15323437399215784,0.11881169956419999,22,24,66,82,2
0.001425644999526647,0.0009351205202030256,0.1629294055740972,0.11699787857461476,25,24,69,84,2
0.0014786073221036728,0.00091985901686607,0.16682305810801434,0.11797812127454124,30,26,73,88,2
0.0013472795707810254,0.0008578645117651226,0.15977893003063584,0.12142032336186279,26,24,76,89,2
0.0015682866228219944,0.000899674643729967,0.1611978305346077,0.12238670828329098,18,24,69,92,2
0.0014791699908906905,0.0007835191163660264,0.16608665275953124,0.12358724682969813,24,32,67,97,2
0.0015769582327552483,0.0008366172960502734,0.17671061954175213,0.13056483473021863,26,28,71,93,2
0.00151683084698564,0.0007921532365770094,0.17826056065591614,0.129543645230234,28,39,70,92,2
0.001564685020969422,0.0007898843849788322,0.17678903952965666,0.12045315146695745,20,34,71,89,2
0.0015673131417144528,0.0007904374689464544,0.16992690680149325,0.12174551620224834,22,41,77,84,2
0.0014446300723806064,0.000846380194973243,0.15712239418663423,0.11401338485522237,26,30,71,92,2
0.0014802007407834186,0.0007562681831939531,0.15402357036747089,0.10900686410257927,35,35,72,94,2
0.0014244777881192024,0.0008679778073536383,0.15274864714051567,0.11382755126891275,26,34,74,90,2
0.0013864897923919956,0.0008364966590723001,0.1461723400146439,0.1012507291314334,24,31,74,96,2
0.0014033163892342407,0.0007545551290327205,0.13933099670930188,0.1000508349977267,26,34,70,85,2
0.001055655125082766,0.004578043194738295,0.09423118623381756,0.5837058066511484,18,32,63,56,3
0.0011301412976451137,0.0049544895790803,0.09541342320080057,0.5626295805969166,24,26,71,61,3
0.0010997237931168174,0.004766267410297287,0.08871235156793765,0.518137058893628,22,28,67,53,3
0.0011426815885284315,0.004465843980781358,0.08732842776501763,0.5078434774983727,24,30,57,54,3
0.0011470378095899242,0.004227624199552806,0.08264766337775911,0.45154765936351476,20,18,58,61,3
0.0011045842976042963,0.004620487823140629,0.07789984635749218,0.47410975066246175,20,26,59,58,3
0.0010465476210656337,0.004698143766648368,0.07963150705999587,0.49752084328715857,18,24,55,54,3
0.0010511042514143273,0.005146762714806967,0.08120661364738736,0.5339392789285059,18,22,46,55,3
0.000998212746766211,0.004616395925657386,0.07779331371599234,0.5055167321051214,20,24,52,56,3
0.0018447298728560971,0.005036867057489057,0.12142905761725657,0.5698629889150035,22,28,42,59,3
0.0020403814592627897,0.0058139627894301825,0.12948840373917364,0.6485811347961302,22,26,39,61,3
0.0019006581914714038,0.005143224675484788,0.11961997648783083,0.5808057492968904,18,20,48,64,3
0.0012283217911488063,0.004636294489948625,0.08838880376646495,0.5754721796564166,24,24,62,64,3
0.001307479686965035,0.004719218851490373,0.09183410941815223,0.528140927749049,18,20,56,73,3
0.0012730436335344753,0.004094046630080767,0.09407009745387977,0.4812871431230588,18,24,49,67,3
0.0012975928743313358,0.0046963787411991855,0.09453256130117035,0.4891587468723293,18,18,57,61,3
0.001217946503547809,0.004778096844138918,0.09014729599770901,0.4484238552747281,18,22,56,57,3
0.0011814054801651721,0.004463405105704913,0.08327014073944544,0.4024055617156386,18,20,60,59,3
0.0012169021184940069,0.0035807200214450193,0.08097614862633014,0.3520096683480897,18,20,50,60,3
0.0011729328857504407,0.003616951503357922,0.08383973742167883,0.361697846695387,22,16,49,53,3
0.0011216695302261042,0.0030234015387851365,0.0850095157097965,0.3377349168603878,18,22,50,59,3
0.0011360551666948896,0.003269862735380889,0.08758976475567205,0.397605350681191,20,26,52,60,3
0.0011255546023376697,0.0034057075485322288,0.08778928441602764,0.4013025256158091,22,26,51,66,3
0.001145147181081368,0.003428607539034141,0.08711962143744177,0.44685458040923737,22,28,60,66,3
0.0011966336914932582,0.0037022862274199964,0.08677226352199101,0.46497943559460253,16,32,52,66,3
0.0010768965964837876,0.0035226266490232866,0.07850392088643754,0.4159554770163962,18,28,49,65,3
0.00110780986592482,0.003389449365640406,0.07545611284798023,0.3968390313043654,18,28,46,64,3
0.0010828909398273034,0.002992723178055846,0.07348881699599481,0.3420044865761025,18,20,54,64,3
0.0010897325136172667,0.002699323026846241,0.0737504373879593,0.3103610336779498,20,24,44,65,3
0.0011266223018621497,0.0026907696967494693,0.07776218811376372,0.2699730763557127,18,20,46,64,3
0.0011348281122384668,0.0028892428403997335,0.07871800606843966,0.304815829303791,19,22,46,63,3
0.001127910401906629,0.003206451831722831,0.07957750399711568,0.3094480881268938,18,18,42,67,3
0.001060119864097877,0.003332947257963733,0.07651681040177247,0.3172265429018841,21,16,42,68,3
0.0010205921782513625,0.0033687412007224987,0.0739504372675803,0.35283278756257563,16,18,36,66,3
0.0009741233295051715,0.003314286208468232,0.06867743613019642,0.3364303243660739,20,18,42,60,3
0.0008577508908452125,0.0030288063086587468,0.06720849929506366,0.3518552960927428,16,16,44,67,3
0.0008701452928125494,0.003180033896341327,0.06949228502789527,0.3584060351357709,21,18,52,69,3
0.0008137537808441568,0.0030152314822244264,0.06858988104549575,0.3517150554396343,18,20,68,65,3
0.0008700052222229285,0.00304588464883044,0.07338312934564517,0.3492233942412471,24,26,70,68,3
0.0008381954794784371,0.002967473364891029,0.07240299920091085,0.3230961617280276,18,30,60,69,3
0.0008416549734340497,0.002893447323545116,0.07113339950879587,0.3515992579690133,24,28,63,71,3
0.000799959281880857,0.0029974348732107092,0.0683877384233569,0.34070392833307206,24,22,62,65,3
0.0007845050070955913,0.002708002487142031,0.0621536489059007,0.33072199020629495,26,28,52,68,3
0.0007804552868087924,0.0028383608030843168,0.06424621453181688,0.33578371531588913,24,26,48,65,3
0.0007927971742152966,0.002714617922417224,0.06474526755042205,0.3059340311954264,20,26,44,69,3
0.0007837209109971112,0.0029652211210472747,0.06615007432925066,0.3380443922526785,18,24,50,71,3
0.0007657703170854312,0.0027658387144184867,0.06655265036358687,0.32850508866910405,22,28,52,71,3
0.0007496571064588684,0.0031621619655181885,0.06405744302534355,0.3324983703115437,20,20,46,59,3
0.0007592688100380254,0.0035434639099688205,0.062471841126872,0.322794465535829,22,20,54,58,3
0.0011672045371645715,0.0006909443609600484,0.06612548750254968,0.048258319915359706,18,18,20,54,4
0.0011659088515469642,0.0007018498341006042,0.06575607768712893,0.045765796031924065,18,16,20,45,4
0.0011534886391831249,0.0007011735345479385,0.06554555328118283,0.049583827521938205,18,20,20,55,4
0.0011540332541794503,0.0007182942973635711,0.06573842641813797,0.04908274049375712,18,18,22,64,4
0.0011421475199963331,0.0006189907725826594,0.0655832337315952,0.044542340142524804,18,16,20,58,4
0.0011202475544725087,0.0006266789504353277,0.06571771520506069,0.04477944238267225,18,16,20,66,4
0.0011084272616986787,0.0005991436788459983,0.06573488582353948,0.04207937030845776,19,12,20,60,4
0.0010931975650923071,0.000642316964170776,0.06538392784055413,0.04224192454172329,16,12,20,58,4
0.0010836867762718907,0.0006676896232955696,0.06575686593445945,0.04525280035954294,21,12,20,59,4
0.0010840797213764685,0.0007067663729710895,0.06575009454289138,0.049435376655387324,16,16,20,59,4
0.0010807580389277313,0.0006659363615249273,0.06583048416644342,0.05257774208858987,21,22,20,49,4
0.0010778579876824014,0.0006846710951726028,0.06600399260327894,0.0540371620646103,16,22,20,48,4
0.0010813236576667899,0.0007214879747537437,0.06621379063812892,0.05174129091006616,21,18,20,50,4
0.0010863896692805892,0.0006528855129466311,0.06648534213146877,0.0509483540264741,16,22,20,54,4
0.0010925006350567458,0.0006129057308982165,0.06652218952033273,0.050428883574890164,20,24,20,56,4
0.0010946446577351462,0.0005969085318946263,0.06735170297891231,0.04997528293348962,16,18,20,56,4
0.0010877148053753253,0.0005670867938462507,0.06689991963049108,0.05145266243426228,20,26,20,52,4
0.0010709744074876492,0.0005898480884885221,0.06656214113986565,0.051129290743838415,16,18,20,48,4
0.0024050171784088434,0.0008941244112279517,0.1450001494737575,0.06926561840297711,18,18,21,43,4
0.002681005967149505,0.0012568727480694228,0.16911893962310698,0.08119298594194888,20,12,24,47,4
0.0026706558605186803,0.0012882437359700496,0.168537942786208,0.08401370264155077,18,12,22,50,4
0.0020985629650920475,0.0011733265336934023,0.1394716664217682,0.07450433260847203,20,14,21,56,4
0.001651191772080636,0.001025146729352141,0.10934166251023925,0.06813561110206504,20,20,21,53,4
0.0013654837120794662,0.0005352373609542844,0.07747132155034549,0.05152332315354136,21,21,20,62,4
0.001378204819675399,0.0004925941241088783,0.07814093085190593,0.041833569169874275,18,18,20,58,4
0.001403241233308584,0.0005265992110691771,0.07903040295824884,0.038783423737869915,19,17,20,56,4
0.0014166293321691867,0.00048478834205298673,0.07922352046484862,0.04244573099140881,18,22,20,47,4
0.001426373198951422,0.0004747982200733544,0.07982538226004394,0.04274098936317073,17,23,20,43,4
0.0014454799104232866,0.0005192256275627748,0.08108297090947678,0.046078946577570806,18,24,20,48,4
0.0014698749261760535,0.0005152417628935658,0.08186355287971411,0.04863047040621573,17,30,20,46,4
0.0014945765038000603,0.0005675313042087617,0.08266327362575693,0.04297299101633549,18,24,20,41,4
0.0015162978692530985,0.0005843429765844057,0.08278847817363291,0.04205419056565961,17,23,20,42,4
0.0015323663194795304,0.000550289782227263,0.08284948417325635,0.04307218561101725,18,22,20,44,4
0.0015402195393607978,0.0005478211041594171,0.083668502338743,0.041003178597953396,17,25,20,48,4
0.0015541438884753226,0.0005347217042226218,0.08357495122489488,0.04315392224449938,18,26,20,52,4
0.0015720815312683875,0.0005319648656121362,0.08457326098154053,0.04099590331504906,17,19,20,46,4
0.0015790616256500414,0.0005404910019913727,0.08521778941839818,0.04012779363516274,18,20,20,40,4
0.001593330537919306,0.0005323826582814015,0.08511165383969944,0.03944882895390858,17,25,22,44,4
0.0016001932055648804,0.0005689573014629663,0.08556908429000736,0.04371290482905544,18,20,20,44,4
0.001609081548382902,0.0005588776199479585,0.08497883271710692,0.042364243544850154,17,19,20,44,4
0.0016190599431931886,0.0005596682146667728,0.0847764541073617,0.04612170022085617,18,18,20,46,4
0.0016332983180401715,0.0005778143751295323,0.08473071752522114,0.04383353347538153,17,15,20,54,4
0.0016378235727294481,0.000498575641338652,0.08538715513549096,0.03919246759287135,18,22,20,46,4
0.0016365521855738114,0.0005334140738091751,0.08620102166794932,0.04252942055078888,16,23,20,51,4
0.0016456073249034606,0.0005369212127147823,0.08624122412398759,0.03934244180146644,18,20,20,51,4
0.0016473438852949085,0.0005680868509513729,0.08634545561204805,0.040947645275703326,16,17,22,48,4
0.0016491723944357633,0.0005479052939350734,0.08608078310538153,0.04219148065243306,18,20,20,50,4
0.0016507617760156226,0.000564067983998338,0.0860545707140027,0.038494183567390934,16,17,20,48,4
0.0016553784134072402,0.0005338149532991748,0.08620722284706336,0.03694181748772827,18,20,21,43,4
0.0011522056847846863,0.003147602844135283,0.11189432809820704,0.28211235913942906,26,22,69,57,0
0.0010611151602830029,0.003372944011966465,0.11429411808435642,0.2979193291753351,24,22,61,56,0
0.0010832223547137144,0.0032988758601988654,0.10753644011091311,0.26599813262947236,24,20,66,52,0
0.0009998178587477945,0.0023803419731332916,0.11063364301374677,0.2441551854567543,26,22,68,52,0
0.0010382676321796446,0.0028214363906245883,0.11706977609479571,0.26641245488361887,18,22,67,52,0
0.001055034843520576,0.0025998661665745737,0.11257177298253039,0.2477734718447131,16,22,62,56,0
0.0010595806728269234,0.002811137185499446,0.10914782323502649,0.27182110789846115,18,22,67,58,0
0.0010340661610657247,0.0031602538353265558,0.10684083200089452,0.28818031862795956,26,22,62,62,0
0.001020617318073025,0.002829537465487497,0.10058834136396332,0.2657839070057255,20,20,61,64,0
0.00098087972158666,0.0030722378493121105,0.09865957706464032,0.2940338198915508,22,20,60,56,0
0.0010038347884270076,0.0029677458612321333,0.1011601220717842,0.28916831992124614,24,24,64,58,0
0.0009630721910654347,0.002970474106325083,0.10172278069226787,0.2994526647005364,20,26,64,54,0
0.001152391814162252,0.0035956476783156398,0.11810953937184063,0.3334769050312112,16,20,70,48,0
0.0011959921608390483,0.0039028389285570824,0.13203593378985667,0.3540169387078044,22,26,67,46,0
0.0011003441365797406,0.0034505080875600457,0.13204445969097073,0.33299750873494105,24,20,66,45,0
0.0011891337612897914,0.002996853187594718,0.13157590492310367,0.29259364700361495,27,20,64,48,0
0.0011523619022067947,0.0032772276642968217,0.12903354297435923,0.2901618797387242,28,16,58,43,0
0.0011867019378747478,0.0029653043877526973,0.12144606600426905,0.2863055831998785,34,16,56,52,0
0.0011881630819082433,0.003229707301335851,0.13449555220258785,0.3205269834423329,30,20,61,45,0
0.0011973601740272388,0.003358441480397798,0.13280735112078781,0.3333454405105848,28,20,62,42,0
0.0010553786106001196,0.003211090546647602,0.12723573603912736,0.317451017219776,24,20,68,46,0
0.000998552503519701,0.003175870347990211,0.12083723564972515,0.3192135263966703,32,22,75,44,0
0.0011750025431677585,0.0028413922061952847,0.11763437211512086,0.2975840375117512,24,22,75,55,0
0.001211366042551878,0.0026205986088461836,0.12332222461843054,0.28343059747367016,28,30,69,56,0
0.0023107659761226144,0.002319783123889209,0.2295677667323079,0.23839877719052383,23,20,64,63,1
0.003128325292565531,0.0024839918471248443,0.2694979169571492,0.2560649334764963,16,18,55,60,1
0.0033450814570503244,0.0023672712907733384,0.2775438856000351,0.25385997787105463,20,24,54,57,1
0.003434970021345734,0.0019700824505891963,0.2791205653642783,0.2222348363747806,16,22,53,58,1
0.003241518842209578,0.0016700703206035514,0.28399513728434467,0.21950232568781847,16,28,50,62,1
0.0029464162256763095,0.0014707853150601221,0.25718496542154756,0.1931733259164709,18,28,53,65,1
0.0034495287301149922,0.0013074732318667929,0.27920478404491733,0.1754870814311261,14,32,46,70,1
0.0036827708888493714,0.0013170433792644364,0.29250880146486435,0.17180339727668836,16,32,41,63,1
0.003635341020530879,0.001264795216539028,0.27095914772669916,0.1551226675459958,16,30,44,60,1
0.0031757080663217447,0.001238102623539097,0.2472075288764708,0.1467878192516116,14,26,47,68,1
0.0032698574478095283,0.0013029227193469871,0.24554805855905223,0.15126379129217968,16,26,34,65,1
0.0027257695106015435,0.0015656670655988742,0.2365703421241788,0.16982889884700164,18,20,40,67,1
0.0029652391378388473,0.0016857000886811957,0.2511206664905471,0.17690251277652588,20,22,44,70,1
0.002902560513167497,0.001780303717400576,0.24711761334324306,0.19140319539063394,16,22,41,68,1
0.002559863554827334,0.0016343499902791618,0.22058338498523297,0.18528931044777402,19,26,51,67,1
0.0027611416037483833,0.0018871441887169374,0.22005099440383052,0.20523265933339843,16,28,55,63,1
0.0034054884628738112,0.0018928867168005248,0.2636422282569105,0.20846065233001487,16,30,51,57,1
0.003208923124373571,0.0016752761105110821,0.26009492463224426,0.19059710796847104,16,22,50,66,1
0.003190752783310101,0.0018538667676146062,0.2807511264496138,0.20529837794008662,22,20,48,70,1
0.0032219692576614593,0.0016624296583015632,0.2709792748331822,0.17990077046286101,18,22,49,71,1
0.0028457302804109266,0.0013633427154478483,0.21363503168875284,0.16412581553958996,17,30,51,73,1
0.0025761019412434394,0.001780441575178548,0.21875373525245503,0.1896064954298147,18,24,49,66,1
0.0027347072723270523,0.0017104105827371952,0.24245533877485526,0.17715517007814546,18,24,45,71,1
0.0022186007298027233,0.0018873830901231362,0.2159648428401047,0.19301430785174534,16,22,51,64,1
0.0024925923779976137,0.0015122900391580107,0.24329181697001792,0.1817790568724994,25,32,62,70,2
0.00209437085582354,0.0014132514239132725,0.2247241031774061,0.17155761322319443,22,30,64,72,2
0.0018851232676301657,0.0010917944605878674,0.20171333333132277,0.15451381341778084,29,36,60,81,2
0.0019262251384458864,0.0010744542584437196,0.19317285402033893,0.15201395738896675,22,34,67,82,2
0.0017750013678173016,0.0010402946386697336,0.17946301452130728,0.14885396743345938,25,43,66,87,2
0.0018302806207926123,0.0011829780181069633,0.1749435416400632,0.14809534569315005,24,38,63,87,2
0.0018795266090039283,0.0012064029957124449,0.17505778247706955,0.14151323688324594,25,32,61,79,2
0.0019355924937518884,0.001227681286460588,0.18063502090020137,0.1417103529558279,24,30,67,76,2
0.001778286525969939,0.0010860443950805145,0.1751410445700472,0.13490301471109778,25,30,68,78,2
0.0017254203376338409,0.0009551450510842077,0.17198906370353811,0.1281157076918175,20,34,60,85,2
0.0018954373904841665,0.0008547046416511265,0.16494464085158034,0.12670466166945923,23,38,64,85,2
0.001896404061727461,0.0008741630408009257,0.1502481310680627,0.1185127725087158,18,34,69,82,2
0.0016863027792942964,0.000774787855640606,0.14242193089919225,0.1137223689097028,21,36,62,84,2
0.001731634577024792,0.0007716927707597194,0.14723867634761437,0.10888692602479778,20,40,64,85,2
0.0017327017252332202,0.000802394173676801,0.1488610629564729,0.11066381386890359,15,40,59,85,2
0.0017492115066629595,0.0008265141177670396,0.14509933992482826,0.11462456817484042,16,38,61,91,2
0.0017306181308344001,0.0007914306831162335,0.14830311460629053,0.10784339224509532,18,34,61,88,2
0.0018144761561688844,0.0008991534630905072,0.14844623318656966,0.11624647848896243,26,32,57,84,2
0.0017677992575754337,0.0009490875870464077,0.1526105095928445,0.11161662639960296,26,32,56,86,2
0.0017543395812952525,0.0009195835017562,0.15849692431484344,0.1091621474778595,20,30,65,84,2
0.001731064627522465,0.0008528271425695418,0.15181904420262535,0.11953090458000476,25,37,66,91,2
0.0017705799619052432,0.0008341417719893361,0.13538676280371084,0.11104870141492491,24,28,66,90,2
0.0017028933841067176,0.0007344584725496283,0.13569513517473106,0.10473621132079262,25,28,63,90,2
0.001594793443776949,0.0007201447082818845,0.1300849709845982,0.10136322695625012,24,30,65,95,2
0.0014863981737237228,0.006240230412305831,0.1114540835782004,0.6889093955023597,22,22,55,61,3
0.0014675939016431294,0.006290455449459934,0.11262861111761024,0.6747513994986627,25,26,58,64,3
0.0014405035266550615,0.0052833196339765395,0.10683200793153216,0.5859259256356794,18,28,61,60,3
0.0012800207770176494,0.00518003354456455,0.09587448559426096,0.5520021892043908,20,24,51,56,3
0.0013592101409204656,0.0038116940664740273,0.09296405412708557,0.5092615006534751,16,32,60,67,3
0.001306002529803641,0.003271278824203627,0.08860533233829816,0.45642043040366276,18,30,50,67,3
0.0013228239598415876,0.0034970047321837765,0.09298556762642247,0.4854959524326209,20,28,49,69,3
0.0012969947068062696,0.003538769918813674,0.08703840485181935,0.464950193475282,18,28,57,63,3
0.0013185855992401767,0.004158472436475392,0.09065661000383303,0.5113504861833842,20,22,57,61,3
0.0013095599062405256,0.004402689239084284,0.09466800207706917,0.5590016132720191,16,28,58,59,3
0.0011978818112987832,0.004822723739450085,0.09008076704951874,0.5565973886283724,20,24,64,59,3
0.0011755554291016958,0.005254912110262641,0.09213706059350035,0.6347202516733703,20,26,65,57,3
0.0012106353847972271,0.004822832227129945,0.08927055975939177,0.5913590156419444,20,24,60,60,3
0.0011685475462611158,0.004824319635445678,0.08506939169964282,0.5671291105843557,18,20,63,60,3
0.0011648335477730826,0.00447463199722949,0.08423478736009989,0.532050041023671,18,24,60,67,3
0.001113025025560777,0.00406179677932851,0.08544477069441433,0.48747378995868285,20,30,58,70,3
0.0012508800253142657,0.004653679984235973,0.08500913366990015,0.5069730988145049,22,26,61,64,3
0.0010801048586091245,0.0048693595552532845,0.08482370756691791,0.529779802904902,28,26,60,67,3
0.0011678363153067195,0.004467254715324126,0.08709139631454726,0.5642471934635508,20,28,54,70,3
0.0011107101934634642,0.004488622891654723,0.08869836839782388,0.5668053223367814,22,22,60,71,3
0.0011304206741596888,0.004079735869477741,0.08885221836764381,0.5301795950633039,16,20,54,75,3
0.0010527569482415239,0.004058390807521666,0.08664799026444228,0.5160449913672308,20,26,51,72,3
0.0010989415250292046,0.003919793439652767,0.09172664393436539,0.5177940543310754,20,32,63,66,3
0.0010581015278132132,0.0039017818767072706,0.08850443947264788,0.506059153777333,24,36,65,60,3
0.0012868204286584708,0.0005010905801120373,0.0681776182078062,0.04096438606053004,18,20,20,52,4
0.0012937074908929659,0.0005037664489543156,0.06807719834881726,0.041551765877431535,16,29,20,49,4
0.0013026573611660882,0.0005442724411475624,0.06805450241143358,0.04243342832456838,18,24,20,50,4
0.0013103517823086764,0.0005146061929626883,0.0676900969116815,0.04306130901636832,16,27,20,50,4
0.0013093493462015952,0.0005353955636728925,0.06852642714525718,0.04361904446199615,18,24,20,52,4
0.001314757113277435,0.0005585464210896809,0.06817605990207432,0.04380336346260656,16,25,20,54,4
0.001311114515691798,0.0006202315550700344,0.06800041515153059,0.04448433451172787,18,20,21,54,4
0.0013185803405821588,0.0005747283700310298,0.06860504759127509,0.04340110364671652,16,21,21,62,4
0.0013207687371422077,0.0005958315944769458,0.06872296314084039,0.0431466534015465,18,20,20,65,4
0.0013229296807662693,0.0005095021082312509,0.06922054362050875,0.04202442865764889,16,21,21,66,4
0.0018426841916415137,0.0007733022291288686,0.10864576418045128,0.05142668135910509,20,16,21,69,4
0.002298153175061439,0.0010727450517765895,0.13916445939210473,0.06578133338446235,20,18,22,37,4
0.002244396635957996,0.0012078968020486657,0.1409219616754814,0.07374190690716254,18,18,23,41,4
0.001727884996797306,0.0011244361269270356,0.10627779917997143,0.0669347809623767,16,16,23,46,4
0.0014418748884823223,0.0008339931329055923,0.08060788608155829,0.05361679387101882,14,19,23,49,4
0.0012187202700047806,0.0007136875296848,0.06754624232459655,0.05096339316764779,18,20,25,50,4
0.001215980944114053,0.0006793469314435119,0.06724465866578222,0.0496810539127954,18,17,22,52,4
0.0011957600809901943,0.0006611215375425547,0.06779591442279354,0.050401258421788685,18,18,22,55,4
0.0011986059879802748,0.0006486592868062041,0.06623534100985128,0.053332434628409,18,23,20,60,4
0.0011885431879770615,0.0006638862348252114,0.06666293052827169,0.052343814650194505,18,26,20,58,4
0.0011875979578370465,0.0006111588058304568,0.0660638664574037,0.05146699787070913,18,21,22,51,4
0.0011897682373457066,0.0006208011933159467,0.06535528820470553,0.04782881269882451,18,18,20,55,4
0.0011796085454542006,0.0005924126069775365,0.06582914788280955,0.04447114975375785,18,20,20,51,4
0.0011700141106974567,0.0006118715011125357,0.06625258984322943,0.043739045426178604,18,18,20,48,4
