f1ch1,f1ch2,f2ch1,f2ch2,f3ch1,f3ch2,f4ch1,f4ch2,Category
0.0013137722155686163,0.004605958872273032,0.10708229827244962,0.4259473129189294,18,18,52,48,0
0.0011990908822714407,0.004779675674479012,0.10196046834503299,0.43855726492081964,18,20,55,50,0
0.0010869183571113042,0.0042062357065628326,0.0999076176057804,0.42508623523256256,18,22,53,55,0
0.0012134987583950361,0.0039977048123639785,0.11930391497301215,0.41826984077020146,14,20,56,59,0
0.0011795508535752744,0.003485497551157019,0.11815930106403369,0.3773959519237313,22,16,57,63,0
0.0013689873310898121,0.0033133125201068817,0.13099427399024466,0.3687908652670037,18,18,60,58,0
0.0013992597971249259,0.0038294053398201145,0.13770155691290745,0.37709389574321855,14,22,56,55,0
0.001212720989462491,0.0037498698088611563,0.11575893084051782,0.3616554301657242,14,24,57,55,0
0.0011220272982902498,0.003837997573511006,0.11461936760730466,0.3737674734348116,20,24,55,52,0
0.000992192840372253,0.003979437247364157,0.10361949690801178,0.3677638708568704,18,24,59,52,0
0.0009521838513803166,0.003403498885672293,0.1016150791059883,0.35892404138634937,18,28,56,56,0
0.0009055710570522957,0.004145007495219394,0.09491486627252045,0.4278715678553605,20,22,61,51,0
0.0009836912908682445,0.004867314487779783,0.0974243132232652,0.4752266239496105,18,22,55,47,0
0.0010302325029852887,0.0047253423168951356,0.09776874921861486,0.49688444236654594,18,20,56,55,0
0.0009749033414356587,0.004852166016893747,0.09032828874074349,0.46535861394470884,18,18,52,56,0
0.0008487793723943101,0.0039032447029103017,0.07949024743909885,0.39887882954885645,18,18,59,49,0
0.000845325147988832,0.00309295694603733,0.07509945543830066,0.33647169582143494,18,22,59,62,0
0.0007941925933626752,0.002987153078870934,0.07883295598599754,0.3132394060524787,22,26,62,66,0
0.0006914329661265456,0.0027958476731588244,0.07311915240683646,0.3063572964152638,26,30,62,71,0
0.0006817760559759425,0.0029045955138280143,0.0721295654012416,0.3295686820418525,24,22,54,67,0
0.0007425945947084672,0.003050244655256255,0.0693080759044297,0.34635771917840946,22,20,64,55,0
0.0007046699192231823,0.0030683401281080243,0.06704270702268819,0.3504094066478411,22,20,62,56,0
0.0008164359656504239,0.003409077724994658,0.07424961894064688,0.36005685239510826,24,22,51,51,0
0.0007769025617561008,0.0031755998614777297,0.0714169182255081,0.3296661635693062,26,28,50,51,0
0.0008415892932981776,0.002937700535945547,0.0759275099398724,0.30436633450728057,16,24,48,54,0
0.0008240981186309903,0.002801966855085108,0.0756942426837195,0.30073758424183983,16,22,50,58,0
0.000879497611348797,0.002892574961994542,0.07099838537658637,0.31418620647819734,14,16,50,56,0
0.0007726355527740796,0.0030457526332016566,0.06638065648125267,0.3117324362650441,14,22,54,61,0
0.0007234474669534193,0.0029613073506551844,0.06566017570561648,0.32151541050268806,16,22,60,65,0
0.0008448943976863528,0.003181214635561909,0.06766414495688192,0.33512651970131346,14,24,58,57,0
0.0006804585274339124,0.002664823641644621,0.06466359230351082,0.2855087525126758,26,26,56,60,0
0.0007600393749242663,0.0026294336220312113,0.06630701879832043,0.28137452531511814,20,26,51,69,0
0.0007506170121987335,0.0028567970782526265,0.06078752773136882,0.28850275291689886,20,26,52,64,0
0.000812664211990077,0.003053095401772997,0.058121648018199315,0.2724395419162673,16,22,57,73,0
0.0007803737696641291,0.003468018375763895,0.06344795193608978,0.3012235166425156,24,20,53,61,0
0.0008021354532657121,0.0036611860036897853,0.067783649867413,0.3280449719592567,18,20,62,54,0
0.0008304696379404816,0.0034151044558543443,0.07135760684018196,0.33528284083241977,20,18,62,54,0
0.0008281578754249625,0.0034390528640284006,0.0699250161883065,0.3370520605440682,28,18,56,50,0
0.0006977152030890388,0.002724302225069278,0.06278745290915337,0.3249820910055833,30,18,64,54,0
0.0006384359873563533,0.002987207385192481,0.058769905998008666,0.3200383886716477,22,16,68,56,0
0.0007309862939151931,0.0029913009191432005,0.06731838589451117,0.30304366060380694,22,20,65,57,0
0.0007699049525683084,0.003062583708548467,0.06836181320229436,0.30288570828601546,14,24,62,51,0
0.0008431686356522063,0.002943824949717619,0.07058824461752915,0.2880155493780423,20,24,59,53,0
0.0009551039395505921,0.0032507909473213116,0.08202197413517122,0.3093563415738456,18,18,55,57,0
0.0010006080724315573,0.0035483110253449407,0.07587055930451686,0.3367563394073506,16,20,50,58,0
0.0008772030831217476,0.003381771877625478,0.07198753176648322,0.3409107204200028,16,20,59,64,0
0.0008194790207616952,0.0035830981929502537,0.07401794160931252,0.36331121532095073,20,22,57,60,0
0.0007958467220966348,0.0035793764381827683,0.07377521699014479,0.37691480447996834,20,22,49,60,0
0.0015053307189927655,0.0020004573038063748,0.13414419410773729,0.18846203910511983,18,20,54,53,1
0.0013742001079129571,0.001968018101361378,0.12289560717482666,0.18476559455596228,16,20,56,50,1
0.0011378660279665158,0.0020498614672685165,0.12244348839310398,0.19135253727254534,20,20,61,50,1
0.0011096166644390354,0.0019779833077663306,0.12520844811619763,0.20287814400726525,20,22,61,44,1
0.0011163813958402448,0.002229427701085837,0.1358645416587891,0.2117199019283223,24,20,63,48,1
0.0013034881777524143,0.002545861903934126,0.14697521855311957,0.24185974425281442,26,26,56,51,1
0.001478580501814264,0.0027500314959601813,0.14948826796626008,0.2638923530484637,22,24,55,53,1
0.0012946479931258902,0.002941219753817077,0.13402277218741454,0.2664852672014013,22,20,66,58,1
0.0012938127685911554,0.002763507609038122,0.1303784989304686,0.28869833892050395,28,24,60,56,1
0.0011885803119941751,0.0024725687884447835,0.1191337095734979,0.2769579216305119,30,24,70,56,1
0.0012359258482842514,0.0027797371156462808,0.12703075754034757,0.30116531553966064,24,30,66,61,1
0.001409156373706566,0.0030571721180222087,0.14356471369380955,0.324450271042381,24,25,66,58,1
0.0014247184326172937,0.002606689610734795,0.13979095308437228,0.26164173981054406,24,22,57,67,1
0.0014309390680676828,0.002750622387433111,0.13851618274006544,0.2537285703229101,22,18,56,61,1
0.0011607060744281829,0.00273733861836449,0.12043579953310855,0.24710681006020863,22,18,63,57,1
0.0008663851595237541,0.002607926557917053,0.10120085471163959,0.2429441196585111,30,20,67,53,1
0.000761563426856713,0.002855431734125455,0.09394652049592477,0.27407344944871875,32,20,73,52,1
0.0009773887574646666,0.002743168235146365,0.10062806464185461,0.2645936027423477,26,20,71,65,1
0.0010774324773381568,0.0027754260768507377,0.10229967337497886,0.23689718551464597,26,18,66,59,1
0.0010445617056678625,0.0022552713921437425,0.0977910468923066,0.22969157252562675,24,18,67,67,1
0.00121547295249796,0.002446223196010104,0.11032850902162497,0.23292942087187246,18,18,62,67,1
0.001055240173714415,0.0021093364835545335,0.10873387521546164,0.22206580182534555,26,22,64,66,1
0.0012602954936644945,0.002430472838199223,0.10956662781552048,0.24234617962525662,18,18,65,60,1
0.001345387062244333,0.002616181807953756,0.11914168975982875,0.2379157970327915,18,20,61,62,1
0.0011947673999996907,0.0024653469260151333,0.11388454074542001,0.23356478680226145,18,22,58,61,1
0.0012458863132304052,0.002864654695821614,0.10513780222543621,0.258254258646148,16,20,62,59,1
0.0008590192125132472,0.002813531572685459,0.09886285160336622,0.2527244662170361,30,22,64,51,1
0.0010074787446957747,0.0031790977119232006,0.09963836854592148,0.2731213856734002,24,20,60,44,1
0.0010480305977204022,0.0031077084376119955,0.10533982184069945,0.25475621148602123,24,16,64,41,1
0.0009054641689007541,0.0032142698857519953,0.10085015099425247,0.2615525847871477,24,20,73,44,1
0.0010218208363701343,0.0032544452065105534,0.11340117453090463,0.2544951531800139,24,16,62,48,1
0.0010183117003340141,0.0024707374368832784,0.11774752450083464,0.24436952600515174,28,22,67,57,1
0.0009615363917318745,0.0023957184515484074,0.11340442824409469,0.26208111795004785,30,26,65,60,1
0.0010711958173668763,0.0022724555725728937,0.12007250878596837,0.25511804864901294,28,26,58,65,1
0.000989576635980327,0.002210511826669201,0.11515752888035281,0.2463172959649417,30,24,60,66,1
0.001051826857369184,0.0023269921413491927,0.11449395753771777,0.2565891779517715,26,24,61,60,1
0.0009542904475155435,0.002487236098277712,0.10897371773323013,0.24952429627417297,28,20,58,52,1
0.0008561993731540514,0.0024579310683056407,0.10148313186295997,0.24358373376851422,24,20,63,49,1
0.00080133593373022,0.0024240848460445256,0.09381966336813745,0.24110694500716692,22,22,69,55,1
0.0007140787217412343,0.0022460272569213647,0.08761728385640241,0.2219869396322952,26,28,71,57,1
0.0008803647711608513,0.002086045362510845,0.0899943579221652,0.20583009502422167,16,22,72,58,1
0.0009489969291634247,0.0017935211213600177,0.10515990841035908,0.19374614419307087,24,30,64,67,1
0.0011533997026276226,0.0017931616842762153,0.11943857457016697,0.19336840432788954,16,28,65,62,1
0.0012596415715335756,0.0019195444754076959,0.1302193838243369,0.2072119331638606,16,28,66,62,1
0.001339754382052885,0.002197742020263651,0.14090032041936637,0.21674631420220877,20,26,64,63,1
0.0013149057927284958,0.0024434993732694254,0.13545215582796508,0.2221075305695201,20,18,64,58,1
0.0011916352538968121,0.0022837672425265985,0.12473229452722132,0.2062408402235812,28,26,72,61,1
0.001100774642385778,0.0023553621705861816,0.12033015752724165,0.213672422824594,22,16,74,55,1
0.0017011660850779645,0.0016666381037036481,0.13004037738016605,0.13607729935931426,18,18,54,64,2
0.0014696940122739877,0.0023029144278339715,0.13214759302763085,0.1810017801227801,20,12,60,52,2
0.0015241568427959739,0.002500514794268901,0.13131110090361317,0.1825827668599663,18,12,54,53,2
0.0012951407965330305,0.002221554912218099,0.13682143415693496,0.16140038126104153,18,14,58,58,2
0.0011796658696727334,0.002155304440124522,0.12871727373312453,0.16483020150774316,22,16,65,59,2
0.001106466565578695,0.001794555383016816,0.11581829233475181,0.1396045655150327,24,18,58,60,2
0.0010224266222146627,0.001621321098922921,0.10066614085297625,0.13513996763174296,30,14,59,59,2
0.0010430914625253378,0.0014206202735419513,0.10925773107063089,0.13176884912392414,22,22,68,57,2
0.001085998248468173,0.0013199709456791719,0.12467874062774867,0.1247526481152859,22,26,65,61,2
0.0010846841894521205,0.001091157271022999,0.13608811625951348,0.11810679604127301,28,26,62,67,2
0.001192229907969366,0.0011949215484405187,0.1338321003278917,0.1274509223021284,26,25,71,63,2
0.0010674532597744733,0.0010386060414490437,0.12886285159299832,0.11411396274324201,28,30,70,70,2
0.0009603509626929608,0.0011460934521242824,0.11626099019068963,0.11582898334677359,28,25,73,61,2
0.000956018781782825,0.0012105699820752264,0.11421951330698714,0.11783057583843658,26,24,66,55,2
0.0008207512946621419,0.0012006320590089538,0.11398151680920604,0.11090182544145634,30,22,67,59,2
0.0008584862287136294,0.0014562918985955666,0.10972739255348331,0.11619868129923588,30,18,60,54,2
0.0007856838622367347,0.0012208426298043035,0.10296244353240111,0.10721921506761266,32,18,69,63,2
0.0008844989910120706,0.0013028010936181724,0.10154139921522179,0.10829949228827089,26,14,68,63,2
0.0008369795730030223,0.0014297840022143122,0.11158230038510136,0.1136324296698451,30,16,76,62,2
0.0008235102378572799,0.0016054453296777654,0.11474751984122109,0.12064332511487402,34,16,79,62,2
0.0008415700922686177,0.0018982811552700912,0.12233628421652801,0.13746084599518288,33,22,74,57,2
0.0008081584014487268,0.0017294713493385186,0.12053000717803401,0.12133057503945265,36,20,73,55,2
0.000766614298028933,0.0016416517160373234,0.10734831902373572,0.1268114462537926,30,22,72,55,2
0.0008527977752306053,0.0013765993805374957,0.11698270550382033,0.11580025113281348,28,16,71,52,2
0.0008731860415002912,0.0013926357514436982,0.12009206199091749,0.10626740200215815,30,14,76,60,2
0.0008286741319494707,0.0015573301904527224,0.1159772864356611,0.10977375497040887,28,16,79,62,2
0.0007998463198323687,0.0014578364023131963,0.11481580875785335,0.10011188431797713,28,18,82,60,2
0.0008344695187269671,0.0014304815722753156,0.10836807026942635,0.10259598756226086,28,16,82,60,2
0.0007569410100572119,0.0011724655821947652,0.09528860937651662,0.09749355810916847,26,20,79,58,2
0.0007144680849177422,0.00110314139227334,0.10092435423315735,0.10268150863653722,28,24,79,69,2
0.0007014996318188706,0.0011697088957315393,0.09877745133880735,0.10853225143190662,26,18,72,63,2
0.0005193422692859119,0.0011650536985449204,0.08961100386403101,0.10890516143893517,28,22,81,56,2
0.0005187735556611605,0.0012142491245841361,0.08642439455919558,0.1040506095621002,28,28,84,61,2
0.00044614990816889313,0.0011891255577775157,0.06811763686430769,0.1059226904833369,26,24,93,58,2
0.000377598161758931,0.0011187829557354285,0.059436194799043336,0.09658477449158545,32,26,93,59,2
0.00047124688936516575,0.0009658824519433666,0.06642610855012424,0.08913776049618613,28,26,81,64,2
0.0005527148768714706,0.0009311590725980054,0.06467268748320043,0.08718817739547174,16,30,73,63,2
0.0005286957484142118,0.0009324463229933122,0.06584085813768507,0.07785108239497879,26,28,75,54,2
0.0005871273741792107,0.0008143408640534143,0.07389350927206921,0.07614169402510812,28,24,75,61,2
0.0014017239417378818,0.0009217588139130811,0.11262950785816361,0.09039316576519257,17,22,51,59,2
0.0019189327727172337,0.001216148038551585,0.16380613390487975,0.0993298446817531,16,16,52,60,2
0.0021783211892812,0.00130743303809251,0.2035314326320623,0.11271021952342573,18,16,55,67,2
0.0023021068265224875,0.001371404799590986,0.2261742176478675,0.12721971400487,20,23,58,61,2
0.0016900313701702578,0.001378127780284142,0.2098743761798919,0.12990345234463127,24,22,69,64,2
0.001142279238849564,0.001392129441874643,0.17610649899955969,0.12852726056984573,32,25,87,67,2
0.0009623419063474312,0.0013446028266703896,0.15789651222613282,0.1300202352797133,26,26,92,74,2
0.0009247448105370379,0.0011790823765312737,0.1541454801188217,0.11744720318327802,28,28,91,75,2
0.001029576518786141,0.0011996293005794268,0.14588196342003945,0.11305783995303426,26,26,89,75,2
0.001514859935267113,0.005841466945283436,0.153383561180956,0.7778262441914803,24,24,55,63,3
0.001458959683571114,0.005729109765145111,0.1488489646945908,0.7627224330517673,22,20,55,61,3
0.001234519781561517,0.004961162987012587,0.14007166465038756,0.6979584474480379,22,26,63,65,3
0.0014467124733170647,0.005307172978640857,0.1444148739978479,0.6612736836287355,22,28,49,63,3
0.0013255011916422463,0.004785875957546673,0.12349407540916178,0.6463051211706292,18,26,49,71,3
0.0011930151529228187,0.004312383332515888,0.12112747393323336,0.6504564743791114,18,36,52,75,3
0.0014268183619673789,0.004769357088104081,0.11841908015666523,0.6235538466455485,20,30,53,68,3
0.0011843412804562988,0.004772589677049689,0.12658673623811673,0.7017334136077426,26,32,54,81,3
0.0010946287904739374,0.004952535120805634,0.12433481505179633,0.7147238390673534,28,30,56,73,3
0.0013659111609620514,0.005219913361649708,0.12977160758355227,0.7192833350314658,26,30,53,62,3
0.0015411875719963353,0.006160049459525905,0.14060614937357524,0.7334069529177303,18,32,52,60,3
0.001401315509901513,0.004543314401060946,0.13753940635798387,0.630515792796988,20,34,53,59,3
0.001618800891221264,0.004449378227128128,0.14521229180843478,0.5813292510021496,20,32,47,59,3
0.0013127495244833855,0.0043464638385010065,0.1354457417497829,0.5533659276997455,22,32,53,60,3
0.001334549239955416,0.0038177036728954737,0.12913973211760255,0.5216398783728153,20,34,54,64,3
0.0012163366112203657,0.0037701744140464636,0.11690871925707202,0.5029729591863897,20,32,61,61,3
0.001079216533570642,0.0039252419829429105,0.11218328494070672,0.5052285197374481,26,26,59,62,3
0.001175428384362155,0.004297063436942302,0.11151404809886756,0.48832523968657976,24,30,56,57,3
0.0009810511856989223,0.004215270607920602,0.10486894646800657,0.5014687026931585,20,32,64,63,3
0.001171847880008226,0.005351600945916856,0.13362088015196144,0.6526539565292864,28,24,59,56,3
0.0011838281557038548,0.006571510733164975,0.14158349873338727,0.8576312179334943,26,26,63,58,3
0.0012800008046833363,0.008175791297285413,0.14204097824094009,0.9482850167548,26,26,61,59,3
0.0014411287126061027,0.008136267860148344,0.1526469488746357,1.031076200356463,28,26,58,58,3
0.0013936079792887276,0.007974375482264076,0.1399635475785253,0.9438153351594408,26,22,56,59,3
0.0014869396394396458,0.007704631040708048,0.14285581466776337,0.8814870522846648,28,20,57,65,3
0.0014729003102332884,0.007523210585959684,0.1748858186062046,0.8601589658073545,26,18,50,65,3
0.001491243630687705,0.006037436863596329,0.16656506101465626,0.7748038205848103,26,24,41,67,3
0.001465126585322256,0.005828628820329621,0.1634871544196959,0.755504375209017,24,26,56,68,3
0.0015154068125732983,0.005583715266471753,0.1604259876769215,0.71355756678437,24,28,51,62,3
0.0011870152323656133,0.004822390873258554,0.13478494730464874,0.6559576546880813,24,28,60,63,3
0.0011914094114266662,0.005217676103385666,0.13773653264743746,0.7058801458368047,30,28,61,53,3
0.0012372471602430607,0.005640034426619435,0.13659351306138598,0.6998182808873079,22,28,59,56,3
0.0012400870973598172,0.004940609573435345,0.12966013733528106,0.6325327863322898,24,28,54,55,3
0.0012425554046889733,0.005107932503751159,0.13345101660645897,0.6695445120984389,24,30,53,60,3
0.0013606353268718833,0.004774403517446172,0.1382762543221266,0.6005428551890396,18,24,54,66,3
0.001195512017732392,0.004210869597752314,0.1289359289076801,0.5741932641664441,20,22,60,67,3
0.0011780190492562356,0.00450714878637623,0.12563886957105275,0.5852067239596398,22,18,61,65,3
0.001074672584755103,0.0037448806233471373,0.11372270500796634,0.49158853422122006,18,20,61,70,3
0.0009739803241455179,0.003806235296832003,0.11052890073578482,0.5336549284724718,18,25,62,75,3
0.001341109836025015,0.005832374775812555,0.13964128082843108,0.7024437740945821,18,22,54,70,3
0.0014825107668463098,0.00653494652433926,0.14917200247427712,0.7380598392628669,22,22,53,62,3
0.0016585688376042937,0.008110017448502121,0.16372437910767845,0.9214409688945528,22,22,52,59,3
0.0017766527479852726,0.008699198263027114,0.1862983251485893,0.9822792386964865,26,28,52,61,3
0.0014496056103827997,0.00831201884615886,0.16394637650357397,0.8980766173318636,28,24,53,65,3
0.0015357912278819341,0.008494494110789803,0.17244288449374195,0.9818889315659071,28,28,49,63,3
0.0016819616521351072,0.008300703284342757,0.1767697936279598,0.957432347395009,24,26,53,58,3
0.001721425436804916,0.008622701133923027,0.17386896521531284,1.0024863639658297,28,26,51,57,3
0.0017619689642299418,0.00886971447725738,0.17255388321762274,1.0076082547553469,28,26,52,49,3
0.00016355644823930662,0.0005146836804097218,0.011724284692763307,0.03402345254946901,16,18,50,38,4
0.00014394174409596507,0.0005102909677398052,0.011029365688978865,0.03232358238030682,20,18,46,34,4
0.00014271765068099478,0.000476237522255432,0.010163761444991749,0.030743883914878836,26,18,46,32,4
0.00013961799213908102,0.00046610347784557257,0.010150787267607849,0.028625800590931415,24,20,42,35,4
0.00014161117308092105,0.00046212329314392184,0.009231286192128698,0.02847584567431561,18,18,48,32,4
0.0001372715786150689,0.0004571014419403722,0.00938470702036609,0.026734297142369412,20,18,44,33,4
0.0001320565151303191,0.0004517388420301533,0.00917988603004349,0.027602427441483102,16,16,44,38,4
0.0001373832053226903,0.00046264876959233313,0.008812091696848906,0.026904988588305645,18,18,46,33,4
0.00013540847753173562,0.0004738381578033081,0.008616236662510627,0.026777699624570845,18,16,42,26,4
0.00013726870518592646,0.0004661413623282263,0.008319062783079024,0.027778061334233335,20,18,34,32,4
0.00013320375205123588,0.0004618905481776256,0.008366142557266112,0.026831888458045683,20,18,40,29,4
0.00013445208675894553,0.00045638161046950834,0.008281682697005688,0.02770047781245276,20,20,42,30,4
0.00013314756122220984,0.00046191723446796534,0.008188905430148392,0.02660456935714538,22,20,48,32,4
0.00013495591512466889,0.0004525314279952447,0.008191496745140987,0.026975023404075565,18,20,40,34,4
0.00013426488071109982,0.0004544212446156672,0.008098556257961683,0.02638973577668916,18,18,34,36,4
0.00013419548607896558,0.00045153030109767686,0.008042588690870213,0.026941288793777673,20,18,44,33,4
0.0001339707382771265,0.00045944764922536236,0.008307908503887183,0.027399097653112894,23,16,38,33,4
0.00013556745817145416,0.00045573325348000516,0.008279823926201541,0.026756919750582895,18,18,48,28,4
0.0001375355134759426,0.0004623743235902174,0.008294358974091908,0.026762052662206395,19,16,40,31,4
0.0001306509276217084,0.0004534725055487747,0.008466879596151423,0.027075146605266213,18,18,46,33,4
0.00013301074381069885,0.0004481909501499395,0.00842401051747489,0.0275022215462792,25,18,44,33,4
0.00013140260841071032,0.0004605013034335363,0.008414722804662513,0.027535360892111078,18,18,54,28,4
0.0001296252107644381,0.00047411359394789745,0.008128720757522327,0.027507892866759323,25,16,44,27,4
0.00012825289818703083,0.0004651875408563622,0.008075515575929781,0.026308846031526015,20,18,48,31,4
0.00012578702770119036,0.00047354926633414644,0.007914805805678096,0.026451995998470375,19,16,48,29,4
0.00012694338151761846,0.0004575680452523601,0.007973822732955903,0.027325609903352047,18,18,38,34,4
0.00012837840807335788,0.000462358274574256,0.008073018335081493,0.026896627065731326,23,16,38,36,4
0.00018720137228726342,0.0005458141309602144,0.01598255697432817,0.038238230184506394,20,20,35,33,4
0.0003662760131894735,0.0006797439164803416,0.025621262295988528,0.051477433991662026,16,22,37,40,4
0.00044193056966550454,0.0008380554326899559,0.03298646826658359,0.06782642514701684,16,22,47,51,4
0.0004511118079919113,0.0007371855925145074,0.03166128799549179,0.06507277750074097,12,28,54,56,4
0.00038124086558240954,0.0007448595295182721,0.02708856025766631,0.06921127421413226,10,29,63,65,4
0.00028171141987537977,0.0007738456846311775,0.02212356881796035,0.07067673353255532,12,24,55,62,4
0.00020883669816881202,0.0007888431063041474,0.01820548493011369,0.07305205754337325,27,22,47,56,4
0.00020826006864553168,0.0007992620346645526,0.016798161697169623,0.07492630141735433,24,18,51,55,4
0.00019774941899298765,0.0007889687831674482,0.015719643054579742,0.0710509848084823,20,18,46,51,4
0.00016127459854369176,0.0006696691554701326,0.013973027637372333,0.058338146249892066,20,22,44,49,4
0.0001552843550904099,0.0005423278284684744,0.010933945660016714,0.042793599995688464,22,17,46,50,4
0.00014657228866943477,0.0005325993472883709,0.010633547777622742,0.03973461613306299,24,20,46,40,4
0.00015774053039899544,0.0004689487486000894,0.010218002032926858,0.03249541176021036,18,21,52,49,4
0.0001495292462166007,0.00046860764536593144,0.00971707473537818,0.032001143264730414,22,18,52,38,4
0.00015123292517768577,0.0005214497047002338,0.00938816541340259,0.03453463286953934,20,17,42,44,4
0.00014419690631834484,0.0004743568542894928,0.008841552377882344,0.03233542867090872,18,16,46,44,4
0.00014233101990179187,0.0004764585660483519,0.0087508711505708,0.031651122237603004,22,17,38,47,4
0.00013830859286592851,0.00042806683582962394,0.008582136273672554,0.03237990326872877,20,18,47,47,4
0.0001443970934522184,0.0004787624089005832,0.008823875951638104,0.03283782737513882,24,19,52,40,4
0.0001448109131047409,0.0005065934384017783,0.008746769379891344,0.03199629524856454,22,20,48,39,4
0.00014459110500056232,0.0004947144222640271,0.00884079042348644,0.032472951338462376,22,17,42,41,4
0.000694995539557198,0.0027238014544321214,0.07130339978499299,0.30588199702286406,18,26,55,61,0
0.000747921458856567,0.003276768647781382,0.07637948252952283,0.33958057940777586,20,18,51,54,0
0.0008531304629581395,0.0034556095669584373,0.08356687499332115,0.3578945385788137,22,20,45,59,0
0.0007035466016309008,0.003277156646624936,0.07656856513431236,0.356603873750258,24,24,54,61,0
0.0006032458533182263,0.0031787930574159575,0.0633846306433783,0.3356584204431248,20,22,53,59,0
0.0005774649374546845,0.0030509083128591845,0.06491349692420174,0.3252689268838366,24,30,56,62,0
0.0004992209286950523,0.0031927636402278537,0.05634289225007187,0.3394411897647749,22,28,56,56,0
0.0006006550228247215,0.003400811687107055,0.06516868466327366,0.3408155235450548,30,22,55,52,0
0.0006832739124652166,0.003175760145592508,0.07006936333558678,0.325200716484091,26,20,64,51,0
0.0007551090160372803,0.003525916047762824,0.0741131131774645,0.3354246443874266,22,18,64,50,0
0.0008016162376163165,0.0032750188148892635,0.07836328956254959,0.323912939609027,26,20,70,57,0
0.000804500851504338,0.003337075900335888,0.07526761966102745,0.3377805113455096,22,22,64,55,0
0.0007891603925548521,0.003050989826440133,0.07560604893846175,0.33797483351808943,22,22,58,59,0
0.000663449969234164,0.0027753043354184275,0.06369975340419644,0.34184671115091253,22,22,54,60,0
0.0005963592046830684,0.002563652986728847,0.057504068582293906,0.31991831019794437,18,24,58,60,0
0.000522205224070764,0.003311633315749532,0.0543656524320672,0.36627416286837394,22,26,53,56,0
0.0004683824378697815,0.003390424159145977,0.0507776145774349,0.3579773652667839,24,24,67,57,0
0.00051400453818193,0.003789332327355203,0.0555580397869022,0.3878013386940866,24,18,69,53,0
0.0005185903220742052,0.0034652995489528105,0.052985413473300755,0.3675740275801304,22,20,68,57,0
0.0005019497196846969,0.003257355245061869,0.05374192086658572,0.34812117304868323,22,20,74,63,0
0.0005126590402632783,0.0036340118767145104,0.05515562574263935,0.3629172376753447,24,22,67,62,0
0.0005095605864156719,0.0030472327546318605,0.05521437212266553,0.3152488568654854,22,26,70,63,0
0.0005260587310524433,0.0029583439660376986,0.05802761329334106,0.31525812303373346,28,26,74,60,0
0.00048388158425627706,0.0023899671094316437,0.053842931085910324,0.2584432393338818,29,28,70,60,0
0.0004966325336365497,0.00230630245823237,0.051690304248143325,0.2507463969619274,24,24,65,67,0
0.0004553944258959802,0.002172287623991149,0.048488621690089384,0.24063716459878354,24,24,59,66,0
0.00042703909277972275,0.0022999577983135932,0.043489635309030814,0.24441559925043826,22,24,57,69,0
0.0004353372786082315,0.0023697867268399377,0.04371589807734563,0.274432675709557,22,24,51,67,0
0.0005047785486286673,0.0028280242548258685,0.048177622916085905,0.3127875502370177,20,20,47,53,0
0.0004804408538804529,0.002800932619958953,0.049525490963797235,0.31973149085974883,21,24,51,61,0
0.0005838297284134352,0.0034429912424632603,0.05284891278527223,0.34643999062683445,20,34,68,58,0
0.0006033513100797076,0.003472221142255958,0.05564072821118185,0.34968818669259144,18,20,68,56,0
0.0006527270514093714,0.002975898867261561,0.05717861539320516,0.3109520522784199,20,32,59,63,0
0.0006351572053921241,0.0031198317807081687,0.05590842080922233,0.30994446563953776,24,28,61,68,0
0.0005269844830227592,0.0028441858352213044,0.055682981098360486,0.29022755124118527,22,22,53,66,0
0.0005215882978967845,0.0025541225529806494,0.05405741089293337,0.29120143235604007,24,26,51,63,0
0.000582325830298203,0.0031674899346390544,0.054985519453876024,0.3320300945346194,16,18,56,58,0
0.0006295056971749596,0.0033595880134957385,0.058042234555520794,0.3389198138994495,20,20,53,56,0
0.0007411788389247501,0.0037379344086568385,0.06007530993461328,0.3752998005130909,16,20,47,51,0
0.0007652731307176057,0.0036712391882123036,0.0567400793631109,0.36613204117034337,20,22,51,57,0
0.0006485793177391582,0.0033476950852969443,0.05724951021071642,0.3702320306123615,22,26,61,53,0
0.0006236804905208895,0.0031648628100850048,0.05495975249120587,0.36179704970363813,26,28,60,55,0
0.0005953631450359896,0.003274196039638424,0.055166324695435684,0.36452459431813533,24,24,64,53,0
0.0006088517073037136,0.003509831067590975,0.05841586318224542,0.36794386988020206,28,20,64,52,0
0.0005745419684040742,0.003138201730459979,0.05597654665943605,0.35519735107145595,24,24,65,54,0
0.000639137379385111,0.0033019810559836976,0.05622603257290648,0.34623768847255704,22,20,64,52,0
0.0006216253865676739,0.002964440007145061,0.055503377201992436,0.32683303785408435,18,24,64,53,0
0.0005209640729284025,0.002960085721429497,0.05193277473989636,0.3176939030625995,22,24,59,54,0
0.0006282095533103995,0.0032736539396904484,0.05533807458868341,0.3079737827801355,20,20,63,58,0
0.0012383623112902698,0.002355733166540471,0.12714697744566802,0.23126834323458872,20,18,63,57,1
0.0012456275962052412,0.0023255767975462723,0.12689811394052064,0.24328576895222,20,22,57,57,1
0.001168862689061467,0.0025287833866327485,0.12834361206838535,0.27186781794991294,26,24,58,54,1
0.0011234144013261792,0.0023355699190842254,0.13160840079714373,0.2687982075230678,28,28,61,59,1
0.0011199144638296054,0.0025932088905254056,0.1259884523649617,0.26854490701517436,28,26,64,48,1
0.0011727549647788064,0.002691074314724706,0.13664813485832938,0.26399581123109456,30,24,71,48,1
0.0013975549571342196,0.002754477843558203,0.1374025323700303,0.2593491005633214,22,20,60,50,1
0.0014552586443067875,0.002915421042658352,0.14425708876636564,0.2737068027941426,20,22,63,57,1
0.001478727944946965,0.002596998386434819,0.15470195976550594,0.2628691253650044,20,20,61,58,1
0.0012384436341410345,0.002430559972382898,0.1319660120007689,0.22803131312958894,20,20,54,49,1
0.0011070667694038343,0.0018843341315402634,0.11438391852147385,0.17514383433726396,18,20,54,47,1
0.0011989158238456356,0.0018367307355629853,0.10526302008852012,0.1588810096072907,18,24,66,50,1
0.0009616593841312436,0.0015559430266970863,0.08912245008287004,0.1509686446660573,18,26,59,58,1
0.0009830709044213162,0.0015401591916138827,0.08837035933358048,0.1665943757525428,20,28,65,62,1
0.0008334011026464015,0.0014643047121752834,0.08536837089659033,0.1721491089521199,20,26,72,63,1
0.0007790022441676055,0.0016419855348229428,0.08228689781402226,0.1779840390746518,26,26,70,58,1
0.0008441331494252735,0.001360467456730101,0.0849870470747017,0.14809236012149404,26,22,73,66,1
0.0009295527246988358,0.0016211285387272528,0.09078995873515416,0.1581126197892392,28,20,66,57,1
0.001034346506130368,0.0016713388562709045,0.1026610317466862,0.17450837665969812,23,20,65,57,1
0.000983925394981029,0.0015618972174062946,0.0989084513283408,0.15646668667985003,20,24,68,55,1
0.000968426306051896,0.0016318759115470224,0.10193214407308208,0.16188771621859183,20,32,65,64,1
0.0009174742367117515,0.0015604824976514365,0.09574454044689963,0.15309971581535572,16,26,67,56,1
0.0008439265560722043,0.0017398169060583912,0.09107765309998286,0.1494203873665218,22,26,69,59,1
0.0008513541062314442,0.0016456134348379122,0.08874475144219798,0.17106201127952833,18,26,60,61,1
0.000917349830469919,0.0016837797020494306,0.0893512587602986,0.16852227522082042,20,26,59,61,1
0.0008531826420041523,0.0016781618506462948,0.09053810155496524,0.1814454885234791,22,22,58,53,1
0.0008241594821692295,0.0017907794622082332,0.08734457838586597,0.18947963456233102,28,30,71,56,1
0.0009022924011081378,0.001576656564640349,0.09374952563653179,0.16410719682645147,22,26,62,63,1
0.0008151532296941212,0.0014840022031879158,0.08901514634875003,0.1701219132864243,30,30,73,64,1
0.0008435171000099087,0.0014766854243981537,0.08797102883358653,0.15701475140903917,26,28,73,60,1
0.0009064448782023604,0.001180565801573705,0.08930238371313333,0.14093849063471545,24,25,67,69,1
0.0007329385729819575,0.001296416904167994,0.08201668817553479,0.1409731405804119,26,28,65,64,1
0.0007842960398761518,0.0011997370115795583,0.08223749726248883,0.13499001142263656,26,26,65,62,1
0.0007485021517609238,0.001064172108443536,0.08143649253722784,0.13307739695345783,20,32,64,68,1
0.0006753923572646434,0.001256361386213021,0.0703900581182735,0.15134906643892568,22,30,71,62,1
0.0007909274400074825,0.0014568701739596007,0.08269391733588373,0.15536644309121803,18,22,71,58,1
0.0007472075099625845,0.001492751636840254,0.07738975265199635,0.16780997930480926,18,22,65,53,1
0.0007245865348504691,0.0015307781504183932,0.07685399175456994,0.15742119278577624,14,24,70,54,1
0.0007908450850061125,0.0012464680533192745,0.0852144274538851,0.14077352065196974,22,32,70,65,1
0.0008648310521433309,0.0013708596166859223,0.08997343631887858,0.15895069622621605,20,32,66,65,1
0.0010994128070107442,0.001367014890509552,0.10735296658043429,0.15871800323028742,22,32,59,64,1
0.0012340519669080997,0.0016707493231663709,0.12101759267658967,0.17882307584994672,20,24,63,67,1
0.001421352582714353,0.0019064785861261013,0.13261424538729139,0.199087579726357,22,24,51,55,1
0.0013440669551268824,0.0017245826044505624,0.12999331841218448,0.19964272334543337,22,28,53,59,1
0.001478790044372022,0.001876387467719274,0.13629312790773457,0.19591127834185376,22,24,56,55,1
0.001385360320964764,0.001715021778448191,0.13328482981216824,0.19491017278179945,20,24,49,52,1
0.0012196476471082985,0.0013534851932670538,0.11669745768160018,0.15471939880462515,18,24,57,59,1
0.0010866253873439678,0.001487348342863289,0.10627981034215234,0.15444071585150743,18,22,66,58,1
0.0009081782605567666,0.0017121116195691316,0.08660346823441858,0.17169658410701094,20,16,73,61,1
0.0005627213622473589,0.0008678387316222356,0.08336639422295505,0.09345907249800534,36,27,80,83,2
0.0005464699349447123,0.0009575205036576082,0.0811516008735902,0.09808320363376925,36,22,76,70,2
0.0005972419879307915,0.001007165291251787,0.08386239902243148,0.10209101573807408,36,23,77,71,2
0.0005319873458793987,0.0010235509807072919,0.07918058903975111,0.10215933047584475,36,24,76,68,2
0.000572863953463446,0.0009335953844695279,0.08155888884202576,0.09617854562463804,32,23,86,67,2
0.0005188786119842879,0.0008470742120536981,0.0826837345856232,0.0918180677681217,34,22,80,79,2
0.0004913812917852389,0.0008682159652882607,0.08476103808570729,0.0906807593146587,40,29,87,79,2
0.0005151471980984301,0.0007712769334357757,0.08721780741737645,0.08230736386631868,34,26,80,83,2
0.0005184097640603989,0.0006771096989258609,0.08849401686151677,0.0825705675901826,38,29,82,83,2
0.0005763204535540635,0.0007582139275882163,0.08996486151182358,0.07922305179596625,32,20,81,73,2
0.000707331171913295,0.0010228327106390892,0.08913024533448072,0.08801898636742615,24,28,68,73,2
0.0008018768534218719,0.0012564929410896549,0.09314473721707289,0.09057675690094488,20,20,72,61,2
0.0008545575450864035,0.0013200553415687077,0.0929040587126709,0.0899744239430636,20,17,67,58,2
0.0008284794863294674,0.001128231211651609,0.08591859526549614,0.08374303640360568,24,14,69,62,2
0.0007229206905324456,0.000982081463373304,0.09005576129535481,0.0772432850906181,28,23,72,65,2
0.0008108269666018658,0.0009224107714760169,0.09406402847779995,0.07727611762396189,26,20,82,65,2
0.0006723377317193554,0.0008271237905719053,0.09239717757656905,0.07620254659835757,30,22,82,68,2
0.0006573681562887508,0.0010088195993656626,0.0966775164906463,0.08137543765674014,34,20,85,64,2
0.0007161221576217372,0.001021013874414871,0.10275606897607048,0.0819910253098718,28,20,80,68,2
0.0006144436758854266,0.0010674299471156463,0.09621213791957586,0.08344451560144,30,16,79,70,2
0.0005918553532384078,0.000963001977193192,0.09247694635531858,0.07959216486741072,28,13,78,66,2
0.0006367012635779757,0.0007912623161682479,0.09334103651193916,0.07133329454733554,30,20,79,64,2
0.0006316314161581713,0.0008176689881823977,0.08940561066990915,0.06784457288728608,34,32,83,70,2
0.0006087896171846728,0.0007503626795608142,0.08843329536763068,0.06533942390073948,34,26,82,65,2
0.0007944167080651165,0.0006994330942166768,0.10321069301274384,0.06982044792002662,32,20,76,68,2
0.0007679372975388877,0.0007208188652787248,0.10225585944641996,0.06885630322825798,28,24,76,71,2
0.0007511929760823839,0.0007361174663576272,0.10232607397359197,0.0667336379687535,26,24,81,72,2
0.0007696772079491736,0.0007056621236222853,0.10668511503107372,0.07071481952728381,26,26,77,67,2
0.0006485191482510373,0.0008410602503829319,0.09754874077000454,0.06540672773866062,28,18,82,69,2
0.0006446620601677535,0.000813465525582515,0.09804719613149913,0.06749281346847032,30,20,86,75,2
0.0005915258651310577,0.0007340755710807098,0.09439811442486683,0.06691853753163839,30,20,84,77,2
0.0005457742632194346,0.0007931443931552732,0.09338479435495202,0.06766254070680361,36,16,86,77,2
0.0005575605454850081,0.0007984154488947613,0.09287457916522933,0.0687070979702855,32,20,85,72,2
0.0006122901160632306,0.0007978911608604892,0.09185144863017751,0.0662523988120595,36,22,88,71,2
0.0006873101882686417,0.0007700391821278159,0.10170817583762805,0.0699594079261486,32,25,79,62,2
0.0006208708905787598,0.0007411686592353365,0.10243419356683423,0.06526244488088823,34,20,79,65,2
0.0006531143548589392,0.0008097259172796501,0.10590704837452682,0.07100938374620303,30,26,74,58,2
0.0006548710278949105,0.0007523465313079062,0.11364058397116422,0.07053920497143869,38,18,77,70,2
0.0007271610892231145,0.0008131908753416252,0.11326192471577241,0.07128234481881011,32,22,76,69,2
0.0007130396832370349,0.0007212556530260836,0.11933534341149211,0.0708785523420491,36,26,80,80,2
0.0007179003814334095,0.0007062381840917612,0.11831712717643948,0.07144854685217591,38,25,81,78,2
0.0007953638156590773,0.0009049503155212224,0.12358527838264052,0.08072934207761512,30,20,80,73,2
0.0007396632804461811,0.0009754999551107535,0.11002051819774059,0.09958877763258078,34,17,84,75,2
0.0007405121349155433,0.001009335560022394,0.11548648694738385,0.10333278325299165,30,22,81,73,2
0.0007706108833012495,0.0011057874674877302,0.11356434703298304,0.10711058470731924,30,24,77,69,2
0.000622729113178472,0.0009387718322289137,0.10415388686037823,0.0987469326985975,38,20,84,67,2
0.0007536600124619143,0.0009472645744978611,0.10913302941371573,0.08379324001271692,34,24,73,68,2
0.0007343618881704147,0.001006806966627042,0.10060341201867834,0.0834895066618412,40,24,73,60,2
0.0007407464815552615,0.0009542533719268362,0.09563704782432886,0.07342150228512714,34,26,82,55,2
0.0008545895245700415,0.0034660662647385126,0.08136938956987852,0.4231632722404216,18,26,67,65,3
0.0008783948584662854,0.003910276309123298,0.09243766202010854,0.4930210918746123,22,30,60,59,3
0.0009699521687150769,0.004432024282052286,0.09972607221899568,0.5407300627379744,18,24,59,62,3
0.0011282044583594076,0.005236838349239975,0.11320323679387294,0.6272965900916386,20,26,56,56,3
0.0011541889524319252,0.005789475658699065,0.11394086785067592,0.7041179036195659,22,26,61,56,3
0.0013310466444841184,0.006564218373400245,0.13702370057420996,0.8130389993605256,24,24,56,57,3
0.0014813963436845204,0.007444256476923353,0.15486126988847554,0.9308894294017674,24,22,55,57,3
0.001632251156801884,0.007455969320886083,0.16459009758880316,0.9325615433013202,25,20,54,57,3
0.0017908758897968533,0.007759110867160227,0.18039697549699793,0.9815412668038314,22,26,51,56,3
0.0018196603933031113,0.007286080380189669,0.1807650872178676,0.994813993792992,26,28,49,55,3
0.0017715757161179528,0.007616216010733871,0.17657318447646742,1.0165729803828596,22,30,51,58,3
0.0017857011334103151,0.009121276303580254,0.20183092538605052,1.090035196150018,29,30,51,59,3
0.0018690485411926702,0.008855808936551614,0.20633286655284763,1.1117640093574328,30,26,52,63,3
0.0020357984001271854,0.007907367633131084,0.2154673231650366,1.0298797892690577,23,24,48,64,3
0.001938764443999047,0.007643558328429857,0.2079511049173933,0.9857206791466884,22,24,51,59,3
0.001912054941770671,0.00824040938807295,0.18361058537666805,0.9555630134941805,18,24,50,61,3
0.0018951891667402193,0.0074366955147098625,0.17743806709573143,0.8559849298233677,12,16,51,60,3
0.001374763498277379,0.006626549495220235,0.15206955636403585,0.767237044819656,16,18,55,67,3
0.0015367692361021221,0.006212471788582075,0.14589045298151382,0.6796838809602589,20,20,53,59,3
0.0013190679009294063,0.004804429836029062,0.12124514183473142,0.5599596529564729,20,24,58,68,3
0.001027575356503952,0.003955646079340551,0.10062871981522645,0.50126309189879,16,30,57,70,3
0.0008978922393337982,0.004003838890967075,0.08668774450097147,0.5256225165843151,22,32,58,71,3
0.0008080868506447809,0.003761742323116234,0.09208497991014435,0.5280164966479538,28,30,59,77,3
0.0008853020677874858,0.004135190135839323,0.09860409155542049,0.5622489340569649,18,26,55,75,3
0.0012394556400390489,0.005037096242034903,0.12109511264252885,0.6470004828172214,16,26,56,66,3
0.0012822128499574196,0.0045396290854523465,0.12549146579293075,0.6437892138510837,20,22,51,70,3
0.0011945523685116465,0.00439022903547118,0.11865864624108212,0.577935102229137,18,24,52,73,3
0.0012328831014476824,0.00521134874937684,0.12521697571748694,0.6070706812697106,22,32,49,74,3
0.0013237665779346562,0.004771436611006488,0.1308964108212834,0.6065941743539738,26,34,49,80,3
0.0012890904143877105,0.005263287407992394,0.13379149076573507,0.6173936542972384,24,32,51,77,3
0.0015284100014931199,0.006422880257574037,0.16266282955267244,0.7757828447258729,22,24,47,67,3
0.001673857136841088,0.006349269893646042,0.17163527557184416,0.8202718184125812,22,26,48,60,3
0.0015257960936463576,0.006365634989323179,0.15761930738860574,0.7915934230466107,18,22,50,66,3
0.0016785610102237987,0.006938803707424851,0.16642215274619113,0.8292758795018773,16,24,53,69,3
0.0014539335375389512,0.006274355805318586,0.14559338889628687,0.7980740444017095,16,24,52,68,3
0.0016069730425981837,0.005666122466651863,0.14112368785536344,0.7527631495582687,18,32,46,60,3
0.0016520104590961157,0.00626159375749443,0.14483940731673683,0.7647384794676526,22,26,44,53,3
0.0013096149224383576,0.005507013448269062,0.13108752880210028,0.7361446669395506,20,30,57,60,3
0.0012764107567781243,0.005051774475297766,0.12964545365242242,0.6312890298819162,24,30,57,58,3
0.0011373150941366966,0.004816319660154358,0.12449829789862395,0.6013179817928307,22,28,60,64,3
0.0011554807343371095,0.004565686035215472,0.11400391786010719,0.5789947115351698,22,26,66,66,3
0.0011889809604755893,0.00490120200818977,0.11196429515896814,0.57414744724787,19,26,62,62,3
0.001312618295819396,0.005117197067852494,0.11857041763628587,0.6042165856136265,16,28,58,60,3
0.0012096754532742115,0.005324954007293221,0.10798275912911028,0.6051365631149906,20,26,61,64,3
0.001130348057203242,0.004580249426227958,0.10785699629403074,0.5525632420260078,20,24,62,66,3
0.0011332958864499615,0.00450293161506578,0.11538414059624494,0.6029025736622926,20,22,64,67,3
0.0010805049372594176,0.004548049771828263,0.10617762281944558,0.5851697367665508,18,22,60,68,3
0.0011752517140093768,0.004518780421623602,0.11378369359061379,0.6013292887721182,16,20,64,70,3
0.0012682919607656202,0.004875197815492187,0.11584633724513838,0.6123963743911648,14,20,63,69,3
0.0002007462431836911,0.0008867104925993027,0.012707766771525426,0.07185970423764843,14,10,49,53,4
0.00019572487645276658,0.0007720499643929437,0.012563005066925256,0.0671008718877712,20,10,43,53,4
0.00019674278401634647,0.0007657667385255937,0.012226274897989463,0.0626535745378173,16,10,45,55,4
0.00018760898975423687,0.0006584423177468972,0.011083784823414738,0.05159132490837053,20,13,47,52,4
0.00017416827259477544,0.0005433935943835514,0.01101763185139796,0.05075058986277385,18,22,47,56,4
0.00017772328266503376,0.0005833218076936002,0.011158493978422794,0.05088815696049478,18,20,42,54,4
0.00017888007680540638,0.0006823765905795717,0.011411589747862062,0.05470843689456299,18,12,35,49,4
0.00019415828953038534,0.0006963557880337675,0.01189169508366585,0.05269602017315667,12,15,40,46,4
0.0001957328219767983,0.0006379963350088272,0.011638944039907754,0.049612512623869155,14,12,42,32,4
0.00017864597158079423,0.0007436327294467753,0.011490687239129596,0.05582110161986097,16,13,37,39,4
0.00018667123402876397,0.0007702881690932109,0.01301658570981991,0.05849413899055742,16,12,41,38,4
0.00019373251044776062,0.0008175363999506708,0.01308201187309768,0.060563449595758254,14,9,41,36,4
0.0001792017720828785,0.0007250488822268555,0.012617563031808655,0.05860354601198954,16,12,48,37,4
0.00018208944053300515,0.0006330646576381475,0.012863018758069087,0.046095931850296055,14,11,46,48,4
0.0001918438467309722,0.0005968846496593519,0.0116594911710396,0.04286621369485457,14,10,47,49,4
0.00018436808590865277,0.0005591811205878074,0.011458782855185815,0.04572794774357713,16,15,42,48,4
0.0001849048566042155,0.000593547460071471,0.012286274520867512,0.048403828627653744,14,12,39,52,4
0.00019297865751419636,0.0005613552072868294,0.012111063393574711,0.04863716281821807,12,13,40,44,4
0.0003357657387385966,0.000635708106590914,0.020473843484596615,0.05898224545875202,8,14,44,45,4
0.0006596889252267763,0.0006408941253277795,0.037850923274296844,0.053433174916691806,5,18,75,56,4
0.0006734049799523051,0.0006288979872029815,0.037299450482961766,0.05087267666206747,4,20,76,58,4
0.0005237519450573629,0.000565254663637571,0.02955658563999822,0.04527888998617207,6,17,61,57,4
0.0004606064298515587,0.0004906820669557777,0.027141346794662284,0.03347074192947824,6,14,77,47,4
0.00017784755830573646,0.0003892100284985179,0.01133166946939023,0.02797741076951883,20,23,48,48,4
0.000183364658222127,0.0003953073392388112,0.01169169543973422,0.028513770078347118,24,20,50,48,4
0.00018601618194337324,0.00039075974104412284,0.011623979428051757,0.0286878856408023,20,21,48,42,4
0.00018818517206540208,0.000388417947592225,0.011858946559374714,0.030155342445887502,16,20,53,42,4
0.00019304992391355847,0.00042068854235865696,0.01230176116331914,0.03239218918179454,18,21,57,46,4
0.00018816743548341887,0.00037934818743742154,0.011548063897952581,0.02934952363926358,18,20,49,42,4
0.00019361805011546208,0.00039300946700744535,0.011742012292030896,0.02963913701253761,16,25,52,50,4
0.000185946431236046,0.0003870890070726264,0.01128456566463776,0.029821525195177712,22,22,51,50,4
0.0001769792232548153,0.0003854111401415613,0.010638306094581756,0.02680075741174662,20,27,35,44,4
0.00017823572158190662,0.00036516846978061873,0.01047487082563753,0.027688791862756496,20,18,39,48,4
0.00018308424271738623,0.0003870199589995601,0.01116289080190485,0.028433032312666983,16,23,37,47,4
0.00018140622417924107,0.0004010340886939804,0.01097436652709916,0.028336441269165756,18,22,39,42,4
0.0001807431386154009,0.00040664037375141897,0.011744119073151265,0.029515043939618003,20,19,39,42,4
0.0001823130832479043,0.000402964753362081,0.011884968814545678,0.028462405982945915,22,18,41,48,4
0.00018153210915849088,0.0004082722631059905,0.011387077405623995,0.030055343488552877,18,21,44,48,4
0.0001760401407080745,0.0004109496851149464,0.011004319458642458,0.02958033208142466,18,22,43,51,4
0.000179448537204182,0.00040879098586467095,0.011321327249681191,0.031284602559042404,16,23,45,52,4
0.00018096741048086285,0.0004081499383077354,0.011817456599607501,0.03216778923363945,24,22,45,52,4
0.0001812697307696107,0.00038759177810050233,0.011208995442704678,0.02940350818043385,24,25,43,34,4
0.00017946378495467343,0.0004091969247540479,0.01209697401410497,0.0327224526854424,20,24,45,38,4
0.0001847538915213837,0.00041009670596777706,0.010839508349976712,0.03271466019671595,22,31,48,42,4
0.0001764336609683851,0.00041839655121246805,0.011609824855908385,0.03164717269758312,20,24,44,44,4
0.00018102122530192104,0.0004011394959718532,0.011877983701372878,0.031380890321756345,20,27,38,52,4
0.0001745924699937803,0.0004380226297706198,0.011378956511582243,0.028539548343876574,20,18,40,42,4
0.00017416158022443216,0.00039681242739541135,0.011820589205736233,0.02864196371668221,20,21,47,46,4
0.00018050116456840075,0.00041575765644234265,0.011291306146683753,0.028463056798357544,18,16,41,46,4
0.0007561245130102469,0.0030770535575471757,0.0782865351310628,0.34908720795385,26,24,47,64,0
0.0007348762681036165,0.0032040263746586405,0.07458774099778195,0.3405351319570076,22,20,47,68,0
0.0007111948702604043,0.003188099156194712,0.07111446383065978,0.34487505127480933,24,24,58,66,0
0.0007148410312263168,0.002993465384041934,0.0662717250802096,0.3045253507363158,24,20,58,66,0
0.0005220584888835727,0.0029440320461883995,0.05664554105173572,0.30325843287024035,22,20,60,66,0
0.000581382217399786,0.0025201162074608113,0.059243583437210576,0.2606779630853589,22,24,61,61,0
0.0005232691087751472,0.0021410298448729464,0.054331848073118715,0.24805271382494104,20,26,66,63,0
0.0005231390424844305,0.002091541990810997,0.0531117923506409,0.2517789874545619,24,28,70,60,0
0.0004854746581976103,0.0019434661784233694,0.04794477377733311,0.25279969437081373,20,30,74,59,0
0.0005084945351515337,0.0021367503879955786,0.04765884184464995,0.2614645336009481,20,26,71,60,0
0.0004944556831828282,0.00211418268765756,0.04770420352995809,0.24200493214830415,24,24,69,65,0
0.0004965280127634413,0.002120095743217232,0.0514661024489707,0.25761447920612346,18,18,67,67,0
0.0005378944318271584,0.0020183320180692022,0.05454896272577632,0.23105809707861932,20,22,70,69,0
0.00047026771474240796,0.002029709551568547,0.050496976539416906,0.2264116684415712,20,24,75,75,0
0.0004533938689144437,0.0018771133953946794,0.04756109967165285,0.2362074180547323,20,28,62,75,0
0.00040071900210472423,0.001966024531211819,0.041348459548218044,0.22563919538074312,18,18,70,77,0
0.0005039832648041309,0.0023220848253648215,0.047835358562446126,0.2641880375189257,20,24,67,67,0
0.0006491036035582491,0.0027354381913203478,0.05967736997092766,0.2883713066911588,16,20,61,64,0
0.0007374811972103884,0.0031308299481394818,0.06681519330094346,0.31745288263093746,20,20,56,56,0
0.0008216129601410924,0.0030201495752948315,0.07144396661763142,0.3272543208008317,22,20,50,55,0
0.0007522894994178099,0.002711872469609817,0.0650470272817739,0.3035417256835976,18,20,56,57,0
0.0006024646371465855,0.002485651489057177,0.0554990594586043,0.290707829872529,22,22,62,60,0
0.0005439351599742447,0.0023736308621606,0.054421815750111825,0.26378415528209764,22,20,66,64,0
0.000595452599045401,0.002470605561376613,0.061148831524868115,0.2624942703844096,20,26,62,60,0
0.0009700906492303167,0.0025057809777380997,0.11327858602014595,0.22933957673523256,32,16,73,62,1
0.0010911442964853782,0.002490764016635318,0.12135486502751927,0.22961969133888946,24,24,74,56,1
0.0010832254022188072,0.002517479345496576,0.1218726930510514,0.2359433115967526,32,16,71,63,1
0.0011781717388947058,0.0022618879509176816,0.13182876161702375,0.21987981510831028,28,28,63,70,1
0.0011091946205608147,0.0021183564199185804,0.12969605908737855,0.2210120588868406,32,22,71,61,1
0.0010283792122338623,0.0022796335288417548,0.12731894400287136,0.21291512114582123,34,20,66,54,1
0.000977010507276257,0.0020915663193654867,0.11856709246491867,0.2118393480193937,36,24,73,58,1
0.0008819356847727343,0.0023243668957452623,0.11061521430407822,0.21613277887234886,28,18,72,55,1
0.0008217216582690179,0.0019129386389530097,0.10815213315220791,0.19025351004538443,28,28,74,59,1
0.0008785834916582388,0.0017383904429474728,0.10693505749832985,0.2003119124280798,24,34,76,63,1
0.0010313016814265286,0.0018248464217755927,0.11358430763970212,0.20164620791430582,26,26,74,66,1
0.0010360456821631313,0.0019387270177801538,0.11203777243064997,0.23163899085108827,22,24,72,67,1
0.0010651554857697336,0.0021182668556261187,0.11882828151960659,0.23690852547047042,22,20,78,57,1
0.0009549425004213193,0.002147887786427232,0.12067812323416055,0.22261490352471164,30,20,74,66,1
0.0009177348138552754,0.002191657388132977,0.11341737821028375,0.2194426663432524,24,18,69,62,1
0.0010329709559074437,0.0019292556374626688,0.1252056038220049,0.1865744875649979,22,24,64,59,1
0.0012122868094400397,0.0019292135267630667,0.1323857997084461,0.17721046633344087,20,26,57,72,1
0.001342879108107731,0.001801381390629732,0.1381129574852022,0.196742322273082,20,24,51,67,1
0.001299007187462035,0.0018089771867155816,0.14385048609837026,0.2128646404747088,22,20,59,67,1
0.0011489513084755366,0.00204922495491196,0.1249231595195645,0.2243697018110802,20,24,61,66,1
0.0009768288338817953,0.0021647280283000935,0.11118963424474458,0.2319223185491777,20,26,59,64,1
0.0010464406615837481,0.002120628727926017,0.1099914011820218,0.2303687396122592,20,24,60,63,1
0.0010162628693702826,0.0020103251466449296,0.10952737035998086,0.21800203030131274,18,26,58,58,1
0.0011675087328067964,0.001990173908877868,0.12203634967553219,0.20990398771494762,20,24,60,60,1
0.0009328362300075824,0.0009649411944214,0.14597238197198065,0.10477671033129161,34,28,76,69,2
0.0009319855324674904,0.0010174217349377755,0.13998087984905552,0.09799800110869097,30,22,75,67,2
0.000904766564092511,0.0009798113731028064,0.1314461201263018,0.10562377444581117,32,21,71,74,2
0.0007707552150074962,0.0009022971441644311,0.12604048712717938,0.10395822291607441,36,20,77,77,2
0.0007156590844058906,0.0008688675774625549,0.12156467138986174,0.10041392173546115,36,21,86,80,2
0.0007136363169503287,0.0009852857041374688,0.12065461526114367,0.09971373790122134,36,14,93,73,2
0.0006559137852243374,0.0009480504219448887,0.11051154687836043,0.08914465378058198,40,17,84,77,2
0.0005902297864554729,0.0008102580551391688,0.10631739061707265,0.08069458843188962,38,16,91,74,2
0.0006645449769902241,0.000977212154793004,0.10883541190464542,0.08887942478596221,42,17,83,71,2
0.0006281420404785764,0.0008180187620633463,0.10509225632251076,0.08455316971196336,36,16,87,75,2
0.0006667197050954742,0.0008439103055494022,0.11396608822138166,0.08291728497388512,40,24,86,76,2
0.0006864463136108358,0.0008051162052228249,0.11324534275406581,0.08674227676394705,44,26,84,73,2
0.0006742180095053982,0.0007393512409574232,0.1124180974133933,0.08273720535065328,38,28,82,75,2
0.0006846164877967731,0.0008273586240536733,0.11191874055148715,0.08567490252107057,26,26,78,74,2
0.0006937076576400452,0.0007848690830715034,0.11188255508343124,0.0890675630465586,32,31,83,82,2
0.0006810333318615716,0.0009696622937409888,0.11742657809360356,0.09171694862285842,34,26,79,77,2
0.0006127585546958227,0.0011417115123017942,0.10400794182817874,0.09376381852568906,42,25,78,62,2
0.0006243629350949269,0.001092070342733594,0.1061611728116378,0.09233320517929532,42,22,79,63,2
0.000606111917678464,0.0009528580409305004,0.09637221180426808,0.08660738023747411,46,23,84,70,2
0.0005445303489192871,0.00076215044501093,0.0885882348837468,0.08165293544490895,38,22,83,66,2
0.0005374994760092927,0.0007309118595962472,0.09320194825052397,0.07790643619448932,36,23,81,66,2
0.0005532983521771912,0.0007258754942260655,0.09200855822637553,0.08050062833634929,36,28,86,78,2
0.0005637326485838728,0.0006637563631595857,0.08983131242667548,0.08008693749519938,36,29,82,78,2
0.000573023069512425,0.0007527919075547576,0.08958203955819798,0.08884583399866802,32,22,84,78,2
0.0018885798460194245,0.007780481254685506,0.1774389546503099,0.9397800387191315,26,26,52,51,3
0.0017932921193740158,0.007849592914742066,0.16680880755558217,0.8772047873505264,26,28,47,53,3
0.0014888825792227806,0.00710373396274823,0.14496390997388817,0.8482245914210174,24,28,58,54,3
0.0014512719429299725,0.006748559945554538,0.1393457208899813,0.7815480129455911,16,30,58,54,3
0.0012629110201623408,0.006380418316010479,0.13566052504467302,0.7754126172776136,18,30,61,56,3
0.00125185534673787,0.006463210054277927,0.12945116443597382,0.7636268505300912,22,22,63,54,3
0.0011244251968397878,0.00635555254653756,0.12450787071766815,0.7091439056172577,24,30,60,57,3
0.0010233349979746971,0.005682328473455067,0.1182453960292251,0.6861274683576447,22,28,62,58,3
0.0009224580724939277,0.005665006690172621,0.09980713000426471,0.6954306011117899,22,32,63,61,3
0.0009444166303179108,0.00502556804128928,0.09151164396648263,0.6336537901925298,18,26,58,61,3
0.0009946936385380688,0.004520493163568827,0.09794705960494375,0.5571266503803834,18,22,68,70,3
0.0009841306036016994,0.004505150091469168,0.09665602221492248,0.538936269024106,20,22,68,69,3
0.0010472539995934381,0.004163974327116268,0.09689865116221551,0.4936525296568234,18,20,67,71,3
0.0011940909589259396,0.00484324655487409,0.0999942934088127,0.4961034156310863,20,22,61,65,3
0.0009782167299880098,0.004478725835117955,0.09124612755529535,0.47721036705461756,20,24,64,61,3
0.0009421731984232826,0.004025346306681224,0.08615195286391568,0.45152248239042975,18,20,72,59,3
0.0007911573774157775,0.0034821090570600183,0.07902893976086062,0.43183652350076795,22,24,79,64,3
0.00071737659346496,0.0030594136309246987,0.07366698424186226,0.394701200372281,30,28,74,63,3
0.0008018446637866141,0.0029181123271411705,0.07496487409516567,0.4101211194743571,24,24,62,62,3
0.0008342955654338101,0.0029850706708791338,0.0792560654163455,0.4258035092659733,26,26,60,70,3
0.0008068246089922992,0.0025338645202667622,0.0831150153928183,0.41087959246710526,30,30,58,73,3
0.0007783282532898235,0.00272531470428997,0.07865583790736703,0.4212253579125798,24,36,60,76,3
0.0007575333653319366,0.002817438083629912,0.0793983687578818,0.41152653163765623,24,30,61,77,3
0.0008108513299741791,0.002981784096598464,0.0789136105605917,0.40080534953276675,18,26,63,72,3
0.00014346752752334766,0.0004523645700212596,0.009011341042777846,0.02946117448058442,18,18,40,42,4
0.0001473848928935872,0.0004402839628249989,0.008868576877740165,0.02975241071508006,20,18,36,42,4
0.00015166627285031817,0.0004683874665832241,0.009164408353136816,0.03021787274763481,18,16,40,40,4
0.0001549026700080703,0.0004396888217450419,0.009491473825192845,0.027747756724135077,22,14,42,42,4
0.00015504281499315097,0.0004467493624578691,0.009187942024902284,0.028601921398603226,18,18,42,42,4
0.00015336347490814905,0.00045695285978816037,0.009531757789563054,0.0288159968077988,16,16,48,34,4
0.0001642191750851722,0.0004652182876793638,0.00963938398388121,0.029375837995017987,18,18,54,36,4
0.00015767369231663235,0.0004716228130420443,0.009262437396760678,0.028716771200631708,16,16,54,41,4
0.00016282306560156025,0.00046492954999004314,0.009976740416042356,0.02812175052847759,14,18,55,34,4
0.00014911100060520133,0.0004635516408627368,0.009807529733884967,0.028575716289668533,20,16,44,34,4
0.00018099947727145103,0.000519709157443236,0.013709976199452542,0.03845728326010103,20,20,47,36,4
0.00021844284796284424,0.0006764830079535111,0.017841129850967634,0.05076965843704516,24,20,47,45,4
0.0005594589141303174,0.0008633779727230852,0.03342302607095209,0.07660644401739951,12,16,42,44,4
0.0005956379182572982,0.0010080653548908594,0.035438529444220636,0.09181820317492549,16,18,45,53,4
0.0005345715273921874,0.001097422652559964,0.03198311442610847,0.10062418375671882,8,20,56,49,4
0.00020171718226372426,0.0009492095783159451,0.01533940727554184,0.09361976425430991,18,24,55,52,4
0.00017892126554068587,0.0008422024551059007,0.014443090474111717,0.0830706559996472,20,22,56,52,4
0.0001952007676817953,0.0008979207358301531,0.013732374698693725,0.07978370216968421,17,20,56,55,4
0.00018005779095110655,0.0008015001838200888,0.012697807652362796,0.07089660782438309,20,14,53,63,4
0.0001899445997720381,0.0008239687825260622,0.013345214149041995,0.07617384150430262,18,16,55,63,4
0.0001918391696330569,0.0008083459046448736,0.01307453576834608,0.07659303851841484,16,20,51,53,4
0.00017595943216806457,0.0007977196940654294,0.012810358882910308,0.07907974629219987,18,20,45,53,4
0.00018285215641084194,0.0007619085324643496,0.012900226249211636,0.07507031121197343,20,12,51,55,4
0.00018315597914080636,0.0008770731404952998,0.013090917742662819,0.07908178266052045,20,14,54,48,4
