f1ch1,f1ch2,f2ch1,f2ch2,f3ch1,f3ch2,f4ch1,f4ch2,Category
0.0002371481867886614,0.00045934065610844744,0.03513411966021187,0.0493622207817963,22,16,75,67,0
0.00036952995210907605,0.0010571156965644708,0.05052728739883913,0.10156332012831663,28,14,69,55,0
0.0004897174200786136,0.001913187875908276,0.06630199081018195,0.18764864574639645,30,20,70,53,0
0.0006954689143420711,0.0031529249966741413,0.09012022044800232,0.2791024911396149,24,18,77,49,0
0.0007638553195333568,0.00430853573438874,0.09879813943855226,0.3514681495837096,34,22,77,48,0
0.0008284982301962636,0.004881506241968635,0.1110633808583592,0.37544876242559555,30,20,77,39,0
0.0008359724203074949,0.004887785089845685,0.10786919695427855,0.3509659497776687,34,18,70,42,0
0.0007667627701826715,0.0038975862924681853,0.09659935620311172,0.2762021446822974,36,14,69,40,0
0.0006615333068438822,0.002771694790312906,0.09151347787943999,0.20449540043382763,28,14,66,55,0
0.0005496657908429136,0.0017054586088421856,0.07744914668612764,0.16199084003927205,40,18,72,62,0
0.0005042863986394243,0.0014618926357377984,0.07664829367015674,0.14111897999461764,36,20,76,71,0
0.000490880116165779,0.0014716363982577804,0.07472203835518675,0.15265711447927452,38,26,81,63,0
0.00048379019451384487,0.0015268500256400332,0.06911239579377398,0.14375124182693716,40,22,79,63,0
0.0004350354746088061,0.0014282163251526793,0.06690225862458202,0.1383630470947228,30,20,79,54,0
0.00039840851184225125,0.001456617277638692,0.06296001874304313,0.1428697509187702,38,22,76,58,0
0.00037953888200048194,0.0014232188306775354,0.06122575338246507,0.13742866897782546,38,22,78,62,0
0.000344160239667151,0.0014198851570380274,0.05757292281138205,0.1304724577542171,40,24,84,60,0
0.0003372959357413449,0.0013176344553996824,0.057313172953667155,0.12699440371046763,44,20,85,66,0
0.00031636754538649135,0.0012667508753468704,0.05435916338649448,0.12283482060124845,44,20,94,69,0
0.0003131997302904959,0.0011485595209804866,0.05376892182809597,0.11158054861713701,40,20,91,63,0
0.0003080674343045756,0.0013026741833210686,0.055997767695319466,0.12778392808795336,44,24,90,56,0
0.0003264032365978097,0.0014421271663814356,0.0567238580137871,0.13618309344079602,44,24,88,55,0
0.00034366557944273993,0.0014243669593209743,0.05702807943740577,0.13519240794466855,48,20,88,62,0
0.00032416217241289783,0.0011684060728062375,0.05632554959407431,0.13482550011419786,46,34,85,65,0
0.00032873073936990596,0.0011468962644025332,0.05314141219243709,0.12642189692384648,44,30,88,68,0
0.0003210560978769089,0.0009869298607345445,0.055173277784819674,0.11611010359721119,44,24,90,74,0
0.00032670240797471386,0.0011001767986212655,0.06085933411723283,0.12301362679386127,54,24,88,70,0
0.000340309843490587,0.0011992701575300139,0.05995378312279529,0.12569000469041708,46,24,95,62,0
0.00031066292836256826,0.001317510201488484,0.05963251822478571,0.12485023196646605,48,22,93,52,0
0.0002896466289122324,0.0014233553347958855,0.05800503401903946,0.13409754588786846,52,20,95,48,0
0.0002665159856276726,0.0011638319700540477,0.05215556996009514,0.12278121316485816,52,26,89,52,0
0.0002645488836160073,0.0011765325611962426,0.04989698521639913,0.1281023408923072,56,22,86,56,0
0.0002752821527366773,0.00121378042334277,0.051578284963180614,0.13500477882430878,54,24,82,50,0
0.00028259719891514764,0.0013082266601223227,0.048928410253944205,0.13027222487450085,46,18,80,61,0
0.00029080926933584903,0.0012669187034711662,0.04947901003585546,0.1308572063366076,46,18,80,67,0
0.00029645777377556974,0.0010771752253562687,0.047698871690203745,0.11301219109885853,42,20,79,68,0
0.0002699056782159636,0.0009752193683078268,0.04645125440264534,0.10527186284596053,34,24,87,63,0
0.00031007458262314057,0.0008178190443076397,0.05036398876518473,0.1009917664357791,42,34,82,75,0
0.0002984392074622228,0.0009933523175774516,0.04997652361418712,0.1014390740620101,36,28,83,64,0
0.0004330404233521858,0.0013951951940670434,0.05806642448429927,0.13922309927516355,31,28,80,61,0
0.0004768216156910951,0.0020425452881828506,0.06469290865385391,0.17698149312776734,30,23,79,50,0
0.0005416139910805025,0.0022461355467906807,0.06959014931051011,0.20474453638797663,26,30,83,48,0
0.0006427490272849252,0.0032099073500930523,0.07326180618201535,0.25624679462048505,22,16,71,43,0
0.0005105574975050724,0.0029480505961652155,0.0699599834547746,0.2389111712040643,24,20,78,47,0
0.0004618468281677463,0.0025714797574442655,0.06906670979046867,0.2296417389334043,28,22,77,48,0
0.00046461182831148285,0.00228172376836924,0.07303007793897434,0.20783059586469513,32,18,75,55,0
0.00043442024300931865,0.0015341054098169608,0.07338476689003838,0.16161476500037042,40,28,73,68,0
0.0004489146600573988,0.0015796498073623517,0.07314107398328977,0.1720709497480981,44,24,84,62,0
0.0016780672279688492,0.0021724295769900022,0.19360327710172825,0.2267944568631327,24,24,71,53,1
0.00203223726828274,0.002822244829846296,0.2198389324336651,0.2590626370949,24,24,72,48,1
0.0018153428604823815,0.002723580308463648,0.1959817695949394,0.2596344715988682,22,24,80,57,1
0.0015582144775863863,0.002726229514333888,0.17227224937753347,0.2520545217615184,22,24,77,54,1
0.001289785974805458,0.002559491782399793,0.1459493953262119,0.2301808197922351,22,22,77,59,1
0.0009971813020044056,0.0022035587007032827,0.12796668020261687,0.2071374122164214,26,20,76,55,1
0.000884190614435741,0.0022558096509475833,0.12339126111684866,0.205582094147407,28,22,80,56,1
0.0010823059561118212,0.0018600314337913098,0.12863623144813816,0.18529325108723857,26,22,81,59,1
0.0010688508829523804,0.00155200160209323,0.14979656646567036,0.16921901446132184,32,26,82,63,1
0.0012289180426162465,0.001498255703454408,0.1711288659582706,0.18443964635211965,30,32,75,67,1
0.001181999907820478,0.0011727471153729434,0.17083697995976313,0.15071348260074993,34,28,76,62,1
0.0011275410283255799,0.0012730840278797827,0.16646700181471386,0.16834249345403735,30,24,74,62,1
0.0011649067443798068,0.0011819237246571493,0.16738341835040021,0.14691765026761114,30,20,78,63,1
0.0011010674622193492,0.0012177932765464864,0.15616784455092472,0.13983522788204608,40,18,73,66,1
0.0011305075172498393,0.0011880954113293357,0.1543980985124952,0.143420889298077,32,16,73,72,1
0.0012125904149435033,0.0012450831491839461,0.15681585201745277,0.1334963793958106,38,16,75,73,1
0.0011994153861222883,0.001393480409255924,0.15226884401720686,0.13796515672482687,32,18,72,71,1
0.0010322764976714242,0.0011291942361712313,0.14149299147217723,0.131119095402784,28,24,78,72,1
0.0009751127141117153,0.0013443408968335318,0.13921674707980553,0.1493149505599237,26,20,79,71,1
0.000818688815297974,0.001116751559473739,0.12753612526185062,0.13145064837894027,34,26,81,70,1
0.000763726451316725,0.001338542652438097,0.12132569960069539,0.14697854943044902,28,20,80,68,1
0.0007362954550052571,0.0013874425683034044,0.11795862385194744,0.1495196761530482,32,16,76,65,1
0.0007237651461050574,0.0010097567993780426,0.11069417007660438,0.11479497411679947,30,16,80,65,1
0.0006738454066793344,0.001038551427456979,0.10730179631502212,0.11831749503167027,32,16,80,63,1
0.0006166519771785086,0.001037561576155529,0.09937162656537071,0.10478492470218909,40,20,81,59,1
0.0006254206215352017,0.0007690113787122148,0.0977260806896204,0.08590572489737579,36,24,80,66,1
0.0006156457848129404,0.0008573202161156542,0.0944024913481275,0.09728672746815832,38,24,80,62,1
0.0006574966929777107,0.0008258838895081867,0.09537342050497777,0.09739257244761092,36,30,76,67,1
0.0005862456492625367,0.0008135738066712342,0.08777120990547047,0.10229681315715955,38,30,76,67,1
0.0005660353619014075,0.0008394927710487612,0.08536491029692879,0.10747837929487544,34,30,76,72,1
0.0005417463098776985,0.0009536778653775145,0.09576329806898815,0.12156144112216241,38,30,82,69,1
0.0005380892451731632,0.0009970823266428578,0.10117462548641908,0.1292110339784705,44,32,82,66,1
0.0007011058723297133,0.001006938632098855,0.11845689290104239,0.12975437272729715,32,30,79,64,1
0.0007440119506161289,0.0010187643775839915,0.12620743940892962,0.1337272433302555,38,34,82,65,1
0.0008153452521962948,0.0010384949910276608,0.13543794945482865,0.13496643816603218,42,30,77,70,1
0.0007716006404895319,0.0009479234048631764,0.1339700943268286,0.12099699993124191,46,28,78,71,1
0.0007867759575791985,0.0008857702498490503,0.13227348785105847,0.11644008976391651,34,30,75,74,1
0.0008193060597730663,0.0008598726982554747,0.128270405274476,0.12374577396462569,34,24,73,74,1
0.0009530646987116704,0.0007526445198235969,0.1302332948089377,0.10570561215244387,32,26,82,81,1
0.0008288354634737812,0.0008714680415709068,0.10579447550809738,0.10623013714487803,22,20,73,69,1
0.0007075888959818255,0.0010325929471139347,0.0875455391734589,0.09935816167712827,18,16,75,60,1
0.0008529074277255652,0.001427629491820206,0.09781253488311863,0.11342711997286192,18,12,70,54,1
0.001190391973915756,0.0017027567951669832,0.11521582650570562,0.12949022573910804,14,18,59,53,1
0.0016155786809239497,0.0017736634938532018,0.16103123143548587,0.1583142734818433,22,24,60,55,1
0.0017506067474016718,0.0019737805536730875,0.18071850806767537,0.1880100390167469,26,22,64,53,1
0.0016043639394003094,0.0015037065815280337,0.1758891426671187,0.16786257619693815,26,26,68,67,1
0.0012385954549288486,0.0013169401108070267,0.15853975890884694,0.16406862152021917,28,26,73,70,1
0.00098919145807356,0.0012714703074257322,0.14253835673427573,0.16179281218859173,36,26,73,71,1
4.716095507216331e-05,0.0002230970182526016,0.006508771648143971,0.022963196078265073,26,32,86,64,2
4.525542426260969e-05,0.00021008359094838017,0.006949033167071873,0.02185421633159479,28,26,85,66,2
4.9800366787109505e-05,0.00024805129404917065,0.007942281324220863,0.02436618119542992,24,22,91,73,2
4.9930274180430074e-05,0.0002385908934779859,0.007482314428015272,0.024371256257441416,22,24,94,68,2
5.340418506526084e-05,0.00022487720042593757,0.009536466177897112,0.021880526274817326,30,22,93,66,2
6.96857201034637e-05,0.00025933764345026735,0.010410875129588531,0.026598404585304852,26,22,94,62,2
0.0002239669081658552,0.00032107663468926615,0.024693822361575336,0.03226274568389466,22,24,70,69,2
0.0008180210461667837,0.0003579889562385234,0.09369173922217232,0.04242112253827423,12,26,61,69,2
0.0016246819524405518,0.00039684085985482127,0.1860669696896961,0.05885675250592488,16,34,51,80,2
0.003098500126489559,0.0004327510226659506,0.31849809611450697,0.07702934258527666,16,36,65,84,2
0.0038971989784377463,0.00048343924929615214,0.439266823880272,0.09209857897369837,22,38,62,85,2
0.004162521912047175,0.0005659465730938579,0.4730408015462136,0.11128216087899385,24,48,62,88,2
0.004064063575823659,0.0005892147913302676,0.5021338339820718,0.11262735849381136,30,46,69,84,2
0.003354695158825371,0.0005371680097872954,0.48730513246640045,0.10522894388271017,32,46,68,82,2
0.0027716499512602266,0.0005138906722202797,0.43387726750384387,0.10588944268983337,32,48,72,85,2
0.0025624980387529196,0.0004360195561384342,0.41465802698155824,0.0866687743509567,32,46,66,83,2
0.0021400878631641336,0.0003982186988382165,0.34350901777919784,0.07597864616431485,42,52,66,86,2
0.0017452484765056863,0.00037517033385530525,0.29726961110341893,0.07165220621757484,40,50,78,90,2
0.001690580882002862,0.00032954243037248575,0.27834388800489274,0.060339356672315936,36,54,77,92,2
0.0014713336558100096,0.0003176502132198908,0.25186418790982956,0.05898685008387814,42,52,85,91,2
0.0015135772107034281,0.000305052590959856,0.2400145241493776,0.05835957005944665,36,42,86,97,2
0.001260051324029328,0.0002955968919177156,0.202968652694439,0.05796360472072119,34,42,81,94,2
0.0010884473179372312,0.00027051287977834175,0.18956741025900462,0.05580349628056791,34,46,86,95,2
0.0011773008121137708,0.0002764166916846985,0.1875194058183853,0.05508406259055856,34,48,86,97,2
0.0010901758896273285,0.0002992398382770483,0.18062527035730072,0.0553663776627829,34,54,85,91,2
0.0011221413036727789,0.000313719821981677,0.17709826487259744,0.05723035339397039,30,50,84,91,2
0.0010038512127037314,0.00029801575445632196,0.16482348849612813,0.0589288706470718,32,60,82,92,2
0.0008479768986628075,0.00030143157160913156,0.15115375631139052,0.05956002459227851,34,52,76,92,2
0.0007988036691683331,0.0003041141077504831,0.14308621244297112,0.05625887190408799,40,44,78,95,2
0.0008289828687428323,0.00026488748139333546,0.14573288723475658,0.05191230679864603,36,42,81,96,2
0.000860173111195845,0.0002594009804474935,0.1417582078163307,0.04795896815663047,38,40,77,95,2
0.0008466527288781982,0.0002320596290194103,0.14298722104274506,0.04376781869445024,36,44,77,97,2
0.0009264186125142812,0.00024101538370678718,0.14418468234355106,0.043854855315686496,36,38,78,98,2
0.0008496770903902634,0.0002501891175450088,0.1359437773724657,0.04842503688936755,34,36,78,94,2
0.0008863203214278914,0.0002571041197111162,0.1423292576236428,0.05021370107728353,30,39,82,87,2
0.0009006050439840261,0.0002856817064749423,0.13594762133820312,0.05080837659777265,30,42,83,87,2
0.0008113958578502587,0.00028849626498454744,0.13310454574834027,0.05122145266978058,28,51,82,84,2
0.0008660754352550472,0.0002501315128233258,0.14240589107476123,0.048185796930188304,32,44,79,89,2
0.0007947929712279092,0.0002610415526692808,0.13619464897539954,0.04992470936810343,38,49,81,99,2
0.0007152109460112374,0.0006749795889386852,0.10710628777620695,0.05886817607304249,32,10,77,86,2
0.0006175912231676211,0.0007548885512213019,0.08244346833760596,0.06270117879190346,20,12,69,66,2
0.0007182801152330305,0.0007249371186508997,0.07362316400993633,0.05620096905437735,16,10,61,63,2
0.0008296461512337536,0.00038344737900183196,0.09249788568134222,0.04390311662166839,14,18,55,63,2
0.0014230798324313834,0.0004471371302906376,0.17094344861565974,0.05870057104448372,24,18,59,74,2
0.0018617858279029631,0.0003962087036144582,0.244999380900515,0.06599738682444924,26,30,64,87,2
0.0030559680393135807,0.000496635591402899,0.3493261726104925,0.08837890383329872,21,40,66,86,2
0.003369420811770149,0.0005249815707588329,0.40996982502871476,0.09589824666862816,18,48,78,87,2
0.0036373997573283384,0.0005872174838821474,0.45032406311483125,0.1095326830999025,22,44,80,77,2
0.0006778514742237809,0.00224821159551491,0.06140203954265822,0.18146218358095514,16,16,68,53,3
0.0006593118313788253,0.0029713174078770128,0.06609280199608461,0.25089184305836176,24,20,64,51,3
0.0006666999095225354,0.003292139622177814,0.07724092284155339,0.3155612109375028,22,20,71,51,3
0.0007424078969697594,0.003604042877735018,0.09498501497339758,0.4254631477806563,22,26,68,53,3
0.0007416340491688093,0.0034584200416807004,0.10677331067457746,0.4537613979627152,32,32,71,58,3
0.000858071620085905,0.003432789832828474,0.11858211623303654,0.48396764641821294,32,40,72,63,3
0.0009399841169046187,0.0038663315497866964,0.12862276098991923,0.5221997652354321,34,38,67,69,3
0.00104217998400892,0.0037061776081692786,0.1316821236274235,0.48246665505832903,30,32,71,66,3
0.001048559043812461,0.0035615585932406513,0.1380335238456297,0.4730945544323348,30,36,74,66,3
0.0009813606407149513,0.003480250453183997,0.13628142438829166,0.4682683138194916,36,30,72,67,3
0.0009363795105972589,0.003255542005378761,0.12954810929985663,0.4501605968774187,32,34,74,71,3
0.000822811221952871,0.002677574034005959,0.128082238556242,0.41242998929620084,36,36,72,76,3
0.0008266713028520317,0.0029614286273961766,0.12755961069377722,0.43643513832432723,31,27,71,79,3
0.0008933610127544317,0.003435751359988998,0.11967030785166612,0.4348187122411755,36,22,68,68,3
0.0012028212806472207,0.00428682156581469,0.12911036929089167,0.4818323563698598,28,28,63,57,3
0.0012696865211490216,0.0042652104912957855,0.14403545302497803,0.49608301050201037,18,24,63,57,3
0.0012340669779159332,0.003539621017864116,0.14752159948692287,0.4383965170797362,24,28,63,59,3
0.0013079341892873854,0.003748741632570375,0.15927952435184212,0.4600290817146709,26,30,62,62,3
0.0013045164937330353,0.0036982817624911933,0.16241728001598282,0.4489234514250021,30,30,66,62,3
0.0013609166633836794,0.0040456366330980575,0.14903266744531976,0.450349935788967,30,24,71,62,3
0.0014162625506714507,0.004308035080550939,0.15691880298258248,0.502383315555209,32,30,71,63,3
0.001329923359318651,0.004249957514004996,0.15982988957174996,0.5012062248304923,26,28,76,63,3
0.0012468185440861214,0.003993625346554864,0.16136979405944485,0.48275494424437754,28,30,67,68,3
0.0011840657879376758,0.0037548205028912775,0.1623117119473095,0.4805578622137026,32,26,63,59,3
0.0012230857611417948,0.0037328267545109666,0.15475486831680296,0.45784526559163635,28,26,58,54,3
0.0011285810152279387,0.0035191189641544042,0.14448096344811728,0.4466230553882061,28,26,60,58,3
0.0011523202892282933,0.0034526171012228294,0.14265391383620016,0.43378364937674563,28,26,65,57,3
0.001145408763575548,0.00350578497019549,0.15092006362779425,0.47022566109511216,26,30,59,60,3
0.0010704223027649235,0.0030028896803109668,0.14783756999013425,0.4503682787384706,30,36,69,69,3
0.0010580653359561702,0.0030392344398939763,0.13906776118417985,0.43907831217320387,20,28,69,65,3
0.001089889548676604,0.00301353142116072,0.13927651618404174,0.42774555415927445,22,20,65,67,3
0.0009051464731818988,0.0027394001619198104,0.11756010696944585,0.3694526575984428,24,22,69,66,3
0.0010389553222845576,0.0029918663645478127,0.11508325373799545,0.33584654578928735,22,18,63,63,3
0.0009982214554332158,0.0027562179917050788,0.11977091687258329,0.3252058144722095,22,26,67,63,3
0.0010544705374054752,0.0029677370593557445,0.12089171525449142,0.3398671128019629,28,28,73,61,3
0.0010750752374855922,0.003050048598148356,0.12521074171612018,0.38002049350161554,26,28,74,58,3
0.001023642744961471,0.003193301462982126,0.12468781747318125,0.39178845936082585,32,30,66,62,3
0.0009733214121503585,0.0032386498243174213,0.12566597285215078,0.41835580535540967,30,24,66,59,3
0.000825848573980961,0.0028309447993087617,0.10654730911443895,0.36951669620362915,30,22,70,60,3
0.000693425454887838,0.002294927455575934,0.08801840807382331,0.29643178004190607,30,30,60,59,3
0.0006098499810786701,0.0020466492288318612,0.07247739273657258,0.2880164249109974,28,32,71,55,3
0.0007062970671709949,0.0031922799107514627,0.06935684051801341,0.30881014540286617,18,22,67,52,3
0.0007621252071297816,0.0036891282528243113,0.07366738875258218,0.35333068549031726,18,20,72,50,3
0.0008625505619404953,0.004152361476109686,0.08337550711699586,0.39503619226261927,18,20,74,58,3
0.0008345210826113168,0.0042179446069521296,0.09820574595084794,0.4510287731891983,26,26,69,56,3
0.0007790062683482005,0.0037207736327769026,0.10172034880493078,0.4329541850145304,28,24,72,62,3
0.0007848383488294589,0.00340616704031028,0.11514340547686736,0.4235822328214867,30,26,69,63,3
0.0009019728008912123,0.0034099562586140364,0.13432349404044483,0.4494240647417307,36,32,68,62,3
4.7086294134463235e-05,0.00018064680917337128,0.009296528326243845,0.021860785733523874,36,26,92,71,4
4.9694349389989985e-05,0.00016081853401233922,0.00948794101018021,0.021250663450962694,42,26,87,67,4
4.776776256358187e-05,0.00015324169621270547,0.008763567157687922,0.02005038324302414,42,20,84,60,4
4.874851215534273e-05,0.00013054010525931088,0.009190116702037694,0.016836299230290702,40,28,78,63,4
4.398398085314381e-05,0.00012500550566244147,0.008109330050287548,0.015095684367206522,42,32,76,66,4
5.203055781253079e-05,0.00014046005718590826,0.009153852834078777,0.015646602851325898,30,26,77,69,4
4.821784226452955e-05,0.00014457142420500527,0.008435475739384328,0.016816957383697814,30,24,81,67,4
5.007772715562075e-05,0.00017664941886332897,0.00908087772547443,0.020347633829807747,38,32,86,70,4
5.117531853082411e-05,0.00019328486340299374,0.009516451005891342,0.021912076934811505,40,22,94,61,4
4.499207827285281e-05,0.00016317894333106893,0.009468915855906979,0.02123086652563178,48,30,100,66,4
4.4386690313709934e-05,0.0001615049330655506,0.00961854896306464,0.02173804795836863,42,28,100,72,4
4.540010467567527e-05,0.00014924615839121409,0.009662583294248123,0.019923115555754493,42,26,95,80,4
4.296535249225221e-05,0.0001726028259284918,0.009338223432515814,0.02122556908925646,42,28,94,72,4
4.5856770930584456e-05,0.0001699693701373898,0.009619193497699494,0.021256603046911585,34,32,89,70,4
4.951170119594599e-05,0.00017002289302196313,0.00997619615520329,0.020108663580828003,36,28,90,74,4
4.4530260417691374e-05,0.00016336221745970932,0.008910427285382369,0.018770173340549003,36,32,93,78,4
4.572910090986717e-05,0.00013107192940864178,0.008988282359729444,0.01840978060564014,36,36,86,83,4
4.2886468101688985e-05,0.00013883764926779488,0.008059319192430137,0.01836853568477768,32,34,84,82,4
4.9850160063449e-05,0.00014854195217019073,0.008628618861711079,0.019595407161683554,38,32,82,67,4
4.987755412341891e-05,0.00015285727030255644,0.009333332971473976,0.021120236821783486,38,40,77,69,4
4.908626872523733e-05,0.00013594077179901812,0.009597635871644944,0.02008264386261726,38,32,79,73,4
4.582819649436765e-05,0.00014745496973611957,0.00868233236340816,0.019427440820869703,42,32,84,74,4
4.471229905525095e-05,0.00014461540944048663,0.008724678030041039,0.020725444432724723,48,32,87,80,4
4.2183428878003186e-05,0.0001415692850541852,0.008183949220196904,0.018993094119666796,52,30,90,85,4
4.3847243488706284e-05,0.0001428947159340848,0.008318386858712336,0.020074591760594795,42,32,91,81,4
4.5252823833227304e-05,0.00015971120990580307,0.008442268173766072,0.021402689270742955,40,32,93,79,4
4.46312388206374e-05,0.00014758094036244185,0.008164812737550904,0.019773486705435245,34,26,87,79,4
0.00014803590632015982,0.0002851200291356599,0.012058079339385479,0.02671999192229022,10,26,81,61,4
0.0002604243636251546,0.0005026575915272351,0.01787378522258655,0.03697114329310021,6,12,65,54,4
0.00026472505404108535,0.0004976748133045292,0.01759492806902103,0.0351302947784408,6,12,65,56,4
0.00017254572845046824,0.00047331146295770155,0.014262441185923682,0.03269353862445957,10,12,76,52,4
0.0001607866903215003,0.00039859845319462403,0.013730025477692639,0.029730797654641265,7,13,75,58,4
4.243816116162013e-05,0.0001772974856106845,0.00807274396459235,0.018998939958357487,36,24,88,59,4
4.534318638694016e-05,0.00018299404199371194,0.008579676970039059,0.0194615540332614,28,28,90,61,4
4.666426963724019e-05,0.00019073351048857917,0.008612661431211513,0.021298871185196404,30,28,87,57,4
4.6817189828444273e-05,0.00015969803667710417,0.008845417985731989,0.01679668858342283,26,28,87,64,4
4.8830771052724515e-05,0.00017883349805839863,0.0100285862255366,0.019613362578727023,36,24,86,70,4
4.601183986332928e-05,0.00017966437011242967,0.009619427005518062,0.020617538806540162,34,30,90,78,4
4.41877303589819e-05,0.00016758076048984419,0.009502546162059311,0.019777472531861795,32,26,94,74,4
4.728876877462161e-05,0.00018539269896055853,0.01025755013618748,0.021141886227902598,38,30,89,71,4
5.051862135260947e-05,0.00018973342772955645,0.01002755219322493,0.020307242008892834,36,28,88,64,4
5.217181272625946e-05,0.0001881490054776966,0.010032617615126447,0.018994546437689958,38,28,80,64,4
5.354994207500555e-05,0.00019797924243161014,0.010267616164862716,0.019723031730942475,42,16,76,69,4
5.076783678617497e-05,0.0001912496224088881,0.009780110670262743,0.0196511621599889,44,30,73,69,4
4.640549135364588e-05,0.00018527003989197692,0.009013638563957626,0.019893107894526054,40,30,77,68,4
5.168707290045052e-05,0.00018938292875854323,0.00961142212126602,0.021246574490411313,38,26,81,70,4
5.1462151688328195e-05,0.0001983149490126126,0.010059114433015954,0.023212215943387224,40,22,79,69,4
5.369990076718601e-05,0.00018291577536679306,0.010803528039111712,0.02313714752880196,34,32,83,77,4
0.0003419637084003286,0.00133943196169056,0.050195111742178854,0.14894382838408463,32,32,85,64,0
0.00033796420499990665,0.0015691595309176654,0.05161918096200625,0.14745250832143972,30,24,77,55,0
0.0003334889824048559,0.0016966574133685805,0.05231613091691246,0.15382849352498532,28,20,78,59,0
0.00031628186206758194,0.0015968525601418144,0.04985018953733102,0.14399685268564885,36,18,79,56,0
0.00033622818748889924,0.0017048698991165678,0.05226405193383749,0.14885331505221844,36,16,78,51,0
0.00031122884382116836,0.0014632695910914515,0.05007300036721799,0.13512196877620644,44,20,83,57,0
0.00030663915147062157,0.0012064628682049992,0.049598106116500486,0.12166204429253699,40,22,86,67,0
0.000286278837678634,0.0011329707277494161,0.049028238327219975,0.1064037969752732,48,28,86,70,0
0.00028735929093412884,0.0011262479951363277,0.04815710336380406,0.10313311059179066,44,20,84,68,0
0.0004748182297258959,0.0019156372206621424,0.06455007869499006,0.1645532678232633,24,16,75,64,0
0.0005923274097514433,0.0026113110851143377,0.08096581294033792,0.19477603962848378,26,10,73,60,0
0.0006697352947494498,0.0032081963225471244,0.09052614944124755,0.2566433286705803,24,18,69,49,0
0.000607159682357658,0.0032600781302966975,0.09322485415528843,0.283272136483213,26,20,69,44,0
0.0006530639292370354,0.0030948643560460578,0.09356857469677071,0.29037328366727766,28,22,67,48,0
0.0005771537870622621,0.0027775966932881892,0.0834652897386454,0.2852281425452406,24,26,74,48,0
0.0005459555211521993,0.0022092531289415965,0.07549682081301007,0.25031697800007646,30,28,72,57,0
0.0005091236859881957,0.0020796738372570183,0.07258197580749517,0.21815821042892306,26,18,74,65,0
0.00041417446113707157,0.0013814516118909753,0.06201415194303792,0.1637704879687576,32,32,86,69,0
0.0004272935230476426,0.00114983141239254,0.061946020454971926,0.14797869144964826,34,30,77,72,0
0.0004160738273897936,0.0012742922423999437,0.06223520965854996,0.1469236912389661,28,30,84,70,0
0.00039112094022829676,0.0012558200374845853,0.06015048665214979,0.1480662206891727,32,32,85,70,0
0.0003849155296019767,0.001423653893795356,0.0659622729049162,0.15903641399390286,34,28,85,68,0
0.0003311888882128063,0.0015194729272933743,0.06022418869168459,0.1583713237591337,42,22,88,62,0
0.0004134036905384582,0.001700613077913895,0.06762093397672155,0.17378542616250892,34,22,80,57,0
0.000451026177665963,0.001627963446390687,0.07471632484056707,0.17552215187655804,36,26,78,57,0
0.0004755842908461268,0.002015747770906885,0.07129026014977291,0.19537907013619513,40,22,80,54,0
0.0004888979115966679,0.0018085716367040982,0.0756670792026629,0.19634710238543637,44,20,74,63,0
0.0004464220766387697,0.0016104525129628509,0.07403529537858443,0.18170520463685286,34,20,77,66,0
0.000450232178862312,0.00174162744664042,0.07213750086643454,0.19142883292746599,32,24,78,66,0
0.00045862494165968044,0.0017608539426095555,0.07206441379598541,0.17680556173985093,28,16,79,65,0
0.0004769203590817724,0.0018140060327258454,0.07100409522596683,0.16705830696334611,26,18,81,63,0
0.00045399382597253497,0.0015811467263709073,0.0721734896809713,0.1493453982664444,32,18,77,65,0
0.0003979053503574442,0.0014769359359897171,0.06808033801354987,0.1459202847050061,36,16,84,71,0
0.0003484936721272153,0.00117785937152288,0.0653199549588361,0.13901295351958284,42,24,88,70,0
0.0003565074435116585,0.001139191502446741,0.06472935904403751,0.1427174640112202,42,26,87,74,0
0.0003499136033809931,0.0012546139154538125,0.05970073617697298,0.14910028850658683,38,26,90,68,0
0.0003615303016750429,0.0011126169351565402,0.060951592138793274,0.12418421400072947,38,20,86,70,0
0.0003400120872474181,0.0012971909559293523,0.0551174418461161,0.13593218789167144,38,20,87,64,0
0.00031253102886365263,0.0011465708038971999,0.052327942517349464,0.13211190207561493,48,22,85,58,0
0.0003141964120714516,0.0013073075294398365,0.051523509647118604,0.13091360034345173,46,20,80,60,0
0.00029546139482078404,0.0013517977176985877,0.046985246415603164,0.1440905858011359,46,22,79,58,0
0.00030849057635518127,0.001307337111483944,0.04904801971870355,0.1332591995232358,40,28,82,56,0
0.0003196037220686176,0.001410485088482737,0.0503118012775688,0.13675849517922,38,24,81,60,0
0.00035873648462721457,0.0012466456533776335,0.05621213256062423,0.13920858753825918,38,24,74,64,0
0.0003505531075953877,0.0012959646218793199,0.057679013748309305,0.1390636927301416,34,26,80,64,0
0.00034889275368592043,0.0010531846778237158,0.0550810002716008,0.1231338822411189,30,24,77,66,0
0.00033463301816815457,0.0009928797601252007,0.05320815255477033,0.11903833865971213,30,26,78,74,0
0.0002603134203374836,0.000880871748520327,0.04348439578754967,0.10534672587221763,34,30,86,73,0
0.0002623444809823619,0.0008043922165307756,0.04406664311147485,0.10249371790309621,44,28,82,72,0
0.0006005071732453432,0.001178107430684649,0.10138211473831074,0.1229754079848938,42,22,80,55,1
0.000573804139245946,0.0011058195803371675,0.0967861188818548,0.11805449145375613,44,24,79,52,1
0.0005847090458593039,0.0009258100740088934,0.09510195709460466,0.10191004922178615,42,18,80,61,1
0.0005404350534892885,0.0008291807914987527,0.08901288210328209,0.08572979126991014,44,16,85,70,1
0.0005541401492133866,0.0008629239597526783,0.08682562571766901,0.0910989830333623,36,18,83,72,1
0.0005154482392775375,0.0008100921218287354,0.08697492031260098,0.08573026780876099,38,16,82,81,1
0.0005106848900836322,0.0007848673835809028,0.08269785627038259,0.08132854975286975,38,20,81,68,1
0.000547033693377315,0.0008606023589347307,0.08066011294550302,0.08981616066766285,36,20,79,63,1
0.000577658871281307,0.0007316753551123125,0.07814973850284922,0.07946182573298992,36,22,88,67,1
0.0008720633310208465,0.0013702274371062203,0.10627236681993343,0.1318369328870728,22,20,84,53,1
0.0010293116718379728,0.0015300199286972245,0.13377388197360543,0.148035830452179,22,18,84,61,1
0.0011544931441763277,0.0018982126754674132,0.1444582065255798,0.17849094895028447,24,26,78,59,1
0.001474262247840071,0.0016454188691285016,0.17796496223283154,0.17204765021081037,24,22,72,61,1
0.0013172704874441802,0.0016237241374010222,0.17343832955311667,0.1762376754450983,26,24,71,60,1
0.0014557300922613634,0.001557505800462594,0.18588222821044237,0.17338324048012305,32,26,65,59,1
0.0014350343457215377,0.0016032617154077189,0.19639664340394022,0.1851156773842738,32,32,74,60,1
0.0012417256019928281,0.0015462063615532809,0.18344860023647686,0.1857197358234524,30,30,75,57,1
0.001143289566479699,0.0013003857406366592,0.17732198417194844,0.16697727064909149,32,26,80,58,1
0.0010261936459394715,0.0013420459143977873,0.15759804228648075,0.15953568538069945,32,22,85,59,1
0.0010017392460049319,0.0010334492234873637,0.14755576761484862,0.1221276799064396,30,26,76,63,1
0.0009680720988350189,0.0010094814765572691,0.13541218646733771,0.12390152291729119,32,30,78,58,1
0.0009395367465734661,0.000929880934699929,0.13031976406766732,0.10815855477516793,34,26,74,62,1
0.0008172962470224955,0.0009444825742068465,0.1226602884425562,0.11505582840694621,40,28,82,61,1
0.0007770845895710134,0.0009334752466920618,0.12423533000090864,0.10934984500921574,38,22,75,60,1
0.0007709688286585307,0.0009342980225272079,0.12278438474779138,0.1047953296602641,38,18,70,67,1
0.0007928418888363846,0.0010547703265571223,0.12465426117535931,0.12273844310022046,38,22,76,64,1
0.0008537387448116961,0.0010233130677091784,0.12732302894917688,0.11779361051962747,38,24,68,64,1
0.0008940118462659414,0.001173035091012645,0.13549954776350775,0.13424178861510475,38,24,66,64,1
0.000884661006162146,0.0011551681982118972,0.1363941894133121,0.12359789172092964,36,20,67,67,1
0.0008194774430234676,0.0010915524469222062,0.12792241953255074,0.12395105090729239,36,22,67,69,1
0.0007640880540695981,0.0008860878316957765,0.12382423727164193,0.10900545414069679,32,24,73,71,1
0.0006673048264879719,0.0008031668949843272,0.11453407057405494,0.0944712547803147,34,20,79,73,1
0.0006715822093348516,0.0008405224593880209,0.10515466062092713,0.0952009604106342,28,20,81,70,1
0.0006037116589011369,0.0007420283599615965,0.09992958402003292,0.0845778224263058,30,28,85,66,1
0.0005921762216493565,0.0007730798951026482,0.0928612600410465,0.08766360280468147,32,22,78,61,1
0.0005542131234502582,0.000683552467919425,0.08269424600672316,0.08108969082408628,30,18,84,60,1
0.0004802829028315746,0.0009149451784240789,0.07796913804762245,0.09914468744230916,32,16,85,62,1
0.000516625806837103,0.0007621708104911934,0.08073468813274322,0.08677991667294316,34,24,81,68,1
0.0005319854036973475,0.0007481899782769623,0.08245434327080922,0.08631510824465902,36,20,82,70,1
0.0005442544001668941,0.0007050666282646064,0.08240197783504978,0.08713475347145574,36,24,76,73,1
0.0005425785885057196,0.0005632663044339401,0.07913218409671248,0.07750397201775082,34,34,79,72,1
0.000558035318452078,0.0007577836798756906,0.09021052116624513,0.09217454676407669,34,32,78,66,1
0.0005975170832424341,0.0009037505416851463,0.10122887703096274,0.1068902315158701,38,28,77,63,1
0.000729007075940968,0.0009894959748492679,0.1235579513766535,0.11208553440553298,34,28,80,52,1
0.0009585099087218946,0.001235185380431713,0.15101521159051617,0.12537198817296624,40,20,77,56,1
0.0010350085768485128,0.0011959675134209057,0.18203489158098027,0.12781437761323575,38,26,85,62,1
0.0011153590286026036,0.0013585671704791583,0.1879952907062176,0.13719999240569714,38,22,84,69,1
0.0012209324714445304,0.0013738718627275307,0.19481105360967357,0.15371865992078698,28,30,81,71,1
0.001466005601454336,0.001162230184036376,0.21026850291643653,0.14125267474822328,24,26,79,68,1
0.0013088069786014354,0.0003012430615577076,0.2089384214449862,0.05769572531161962,36,42,87,94,2
0.0013282093848967476,0.00028584701208236396,0.20067196164953197,0.057857721022763035,32,48,82,97,2
0.00129295516223613,0.0003004212201107037,0.18838888965045508,0.05656866373830345,28,52,77,95,2
0.0012541018154498928,0.00029909845635644984,0.18330881088846243,0.05655787171563674,34,48,74,91,2
0.0012073322791827856,0.0002845143640461731,0.17618912643077644,0.054323535532288206,34,46,73,96,2
0.0012792123268417339,0.000266629029707893,0.17552568511996075,0.049153271916752075,34,42,75,94,2
0.0012246139651224655,0.0002457882590533402,0.17743613634882102,0.04599457244215476,34,38,76,98,2
0.001188942344109357,0.00025685859292870917,0.1766590220386698,0.04553695824076197,36,38,76,104,2
0.0011774488425126284,0.0002680646772124205,0.18799228211193883,0.04894202825896093,36,42,77,101,2
0.0013304327804769254,0.0006818454826673749,0.20749538006878648,0.08235218138597206,24,18,77,85,2
0.0019838967824066913,0.000772621019562555,0.26591218257149685,0.09757867290143785,16,20,76,84,2
0.0023223840352202987,0.0007434305820946983,0.28834103258628785,0.10494998591243535,16,20,73,85,2
0.002947634765114853,0.0004939580289967002,0.34572867720308753,0.09683307454012727,24,36,69,87,2
0.0032033971032195308,0.0004327053883829357,0.3546379763767408,0.08235157910334406,22,30,71,95,2
0.0031772271889956233,0.0004625173705345411,0.3705764450629002,0.08568611598098862,26,34,77,95,2
0.003253363562834905,0.0004794154284629243,0.4182710305034932,0.08498950987302932,26,34,85,93,2
0.0026275488511334415,0.0004920511939360181,0.38537523360839554,0.09150459761722567,32,40,83,94,2
0.0027939409241576306,0.00048707711466330043,0.42846318100838826,0.09529706400875929,28,46,81,88,2
0.002927377898181336,0.00045661314386205977,0.403664032477968,0.08608400003038819,30,50,73,90,2
0.002765431961860376,0.0004299703756684032,0.3909542955183946,0.08826705099513646,28,56,77,91,2
0.003050390211929175,0.0004560683304740427,0.4201513691437968,0.08879620971661704,26,44,74,86,2
0.0029685881265216372,0.0004570440427608123,0.40569033892640527,0.0864509171447011,28,42,65,85,2
0.003032366425389829,0.0004749153015579205,0.398530192466507,0.08636972243213847,24,42,72,80,2
0.002333707759311524,0.0004706125097846059,0.360842291590883,0.08531164951543735,34,40,74,79,2
0.0021139705430209535,0.0004862729018220048,0.3381833776243801,0.08618435503602212,40,40,76,83,2
0.0023514719836562133,0.0005184098751088551,0.33344913548699356,0.09129531967143524,24,44,84,78,2
0.002435161386354891,0.0005192129386549452,0.35042933877211313,0.0862978148748062,24,40,90,79,2
0.002847719370536025,0.0005243767455645028,0.36616602379349716,0.09015924309886796,28,40,86,78,2
0.0027628802390943356,0.0005029128974736935,0.36270916759413513,0.08698551267669986,24,40,83,81,2
0.0028071937211422366,0.00045909334687334525,0.3634942699537278,0.08364204437764484,36,46,80,80,2
0.002356875118010698,0.0004690346649363829,0.3403805506658327,0.08645366865889481,36,46,88,86,2
0.0023363431979825664,0.0004047878106317758,0.3405853242474721,0.08334277657471925,34,58,89,87,2
0.0026191727271665964,0.00041919565350681976,0.38408816012566016,0.0833482703448578,26,52,84,90,2
0.002504751153957043,0.0004388975607825978,0.394943274509729,0.08920207557380279,30,54,85,93,2
0.002633475386839576,0.00043645066051595146,0.41004707475761254,0.08642090565348232,28,52,74,95,2
0.0025711665443604575,0.0004994042404230909,0.4012565449143599,0.09106075479288323,36,52,74,85,2
0.002242766296420122,0.0004560110955558623,0.34947471981696177,0.090917587528217,32,52,80,84,2
0.0024297124342292395,0.000433619051858787,0.35072859596468886,0.08556780597156714,26,46,76,92,2
0.002432226233710638,0.0004808105287627423,0.35297391210445744,0.0855936518629126,34,38,71,93,2
0.0025939684056901858,0.0004147829613883925,0.34984218234607123,0.07941660586480417,34,58,75,92,2
0.0027672950080544615,0.0004090171556890619,0.36649137350348254,0.07522769902470078,28,52,75,93,2
0.002432950658747339,0.00038479887299556847,0.343740551374878,0.07440796640803946,28,50,81,93,2
0.0021445265226686452,0.0003579108481127985,0.316348453724998,0.06919086045059271,30,46,83,96,2
0.0021369171903038715,0.0003405659429130953,0.33024153833013087,0.06658125431776495,28,48,76,92,2
0.0020178947853256553,0.0003259795969993582,0.3156680479328683,0.06465634915543401,26,46,81,92,2
0.001914439623101383,0.0003352010491049666,0.2884844051131135,0.06230504278444469,24,40,85,91,2
0.002113604440189902,0.0003452957970899545,0.30135721776050955,0.0640725615302665,36,38,86,88,2
0.001839046433685317,0.00033394002128079854,0.26859242916726483,0.06305481776584677,34,42,90,96,2
0.0016043415599786206,0.0003458705773522197,0.242876853720595,0.060582193934076864,32,46,88,94,2
0.0007661723576869559,0.0025906510563531294,0.10647465634460541,0.34312867673705544,34,28,70,66,3
0.0008028900099963486,0.0028231408764496898,0.10908953848793472,0.3555036458574217,32,32,70,62,3
0.0008140711432773547,0.002854916630698661,0.10471044174903275,0.34409070557937516,28,26,69,69,3
0.000800814659637025,0.0027935533273481467,0.10067429472593062,0.33557931993693485,26,26,66,70,3
0.0006460433659246679,0.0023667693469442237,0.08631396758061978,0.2932584090129652,24,28,71,75,3
0.0005825849975178052,0.0020583283004456123,0.08233834635360508,0.28748467470093003,32,34,73,78,3
0.0005547580952196605,0.002225893129594251,0.08252562116222836,0.29870553951815376,26,30,72,74,3
0.0006483358632140171,0.0023434733904389017,0.09044822847778816,0.3013156033764175,28,26,63,73,3
0.0006858344832267648,0.0023753663357077535,0.08977282829073477,0.3105589897443318,24,22,65,74,3
0.000835688908653551,0.0029051086068869357,0.10151303173270639,0.36867388305984583,24,24,61,69,3
0.0009497400932764542,0.0034783303341506494,0.10830101691920173,0.42430864214874014,22,32,60,68,3
0.0009324727799348373,0.0035621493159428614,0.10229329883056171,0.4454140472177162,22,28,63,62,3
0.0008788980511599254,0.0033092081200543967,0.10422850390715407,0.4105575408025254,34,26,65,68,3
0.000834410568213296,0.0030736625942619435,0.1013649795854621,0.40227053523260764,30,26,66,68,3
0.0007286739332249849,0.0027050250728210172,0.08911428378790782,0.3457349608849892,34,30,78,76,3
0.0007453375905977701,0.002442697786349855,0.09634291759313793,0.34363431536839323,30,32,76,79,3
0.0007466728952155875,0.0027303363935736284,0.09125496333974407,0.3859535286380411,36,30,74,83,3
0.0007531481038518108,0.002795762955192034,0.10242231974603365,0.3743826922403058,28,24,81,65,3
0.0006823235417026198,0.002562525322958606,0.1039082268666241,0.37487050791830556,28,30,80,56,3
0.0006155462205577333,0.002444904683277388,0.09097007424665834,0.3485845228114452,30,28,85,56,3
0.0006658566667041091,0.0024583739481389374,0.09323131623826589,0.3477790088299182,32,28,89,59,3
0.0006138010103111018,0.0024943620164337935,0.0908789960147467,0.34668143645551325,38,28,82,62,3
0.000626667358484134,0.002248517843102137,0.0917117889922405,0.33357031169685203,38,30,77,69,3
0.0007068334585548294,0.002397986407360001,0.10182093903705891,0.34338166335308656,38,34,71,68,3
0.0007269605935410295,0.00250138186696356,0.10366135754816642,0.3331359761263662,38,30,75,68,3
0.0006729333766057661,0.0023206759934215225,0.10124722354170025,0.3407336604256284,36,34,77,76,3
0.000769117145051818,0.002519840900215554,0.10705847726980425,0.3321473024404826,34,36,73,77,3
0.0008115066819907203,0.0024997659419098693,0.11626391230083637,0.32974599580880415,36,34,74,76,3
0.0007117318531894208,0.0023672325521166856,0.10920802717521876,0.3303837759888124,36,30,67,71,3
0.0006889839559773461,0.002231872441754311,0.10320158320633609,0.30941842685335624,34,36,64,66,3
0.0006618437522674471,0.0021859377585425983,0.10094022960777306,0.3084700738790454,36,36,65,64,3
0.0005890007385874123,0.0022075928220037146,0.09482994455780906,0.3081932807595148,42,32,73,61,3
0.0006343070462790687,0.002236370327313328,0.0997554131322426,0.31071743391744056,32,32,70,61,3
0.0005899965894673487,0.0022681463424394587,0.09494904535218887,0.29308980977691945,36,28,75,68,3
0.0005502368456375767,0.0021029710660046665,0.08938414596958708,0.29575492240739826,38,30,74,67,3
0.0005918403940747595,0.0021818375836441537,0.08022063879214271,0.29511710553901305,34,24,71,67,3
0.0006033755546559123,0.002366827681717802,0.07751290929260789,0.3199020011378749,30,28,74,61,3
0.0006552875313390289,0.002303020927891122,0.07585008947412525,0.311630431183199,26,26,77,65,3
0.000547031797472152,0.0022172160932762406,0.07296311895777063,0.3118957132290356,32,26,84,68,3
0.0005707395770256017,0.0023121808956276073,0.07306610484118724,0.29853838771763486,24,28,83,66,3
0.0005593295883555444,0.0020051178430580273,0.07709561176806352,0.2610954183983687,36,32,78,70,3
0.000558454169937654,0.002165728288972712,0.07738682276478641,0.2764013337056884,32,26,82,65,3
0.0006265580347450106,0.002002361662482699,0.08784429068761106,0.2547365363442601,34,28,72,65,3
0.0006159458839513091,0.0019813634102399395,0.09018686616219505,0.27567532836715847,26,30,69,67,3
0.0006039975641404958,0.0019056476411925605,0.08590819779295852,0.2694984611133527,32,36,71,65,3
0.0006208216817988805,0.001998186027225503,0.08975656075438505,0.287422245386106,32,28,67,72,3
0.0006151521009575743,0.0022379794636325427,0.09036063279555907,0.3401732190739136,30,34,67,71,3
0.0007325267950219157,0.002454185737661517,0.10009984361441512,0.3659832658727744,32,34,68,73,3
0.0007089478299240782,0.0026928420616447006,0.10341805540577655,0.3859997480050152,36,34,76,73,3
6.0949043085349215e-05,0.0002807238530941272,0.010368444474307714,0.02915833863681592,36,20,83,64,4
5.9723416080188164e-05,0.00024380578689988067,0.009883768935669156,0.027101399215643203,40,18,82,60,4
5.578912669485071e-05,0.00018159297637402076,0.00870823257919232,0.021459883633945156,28,24,84,61,4
5.9262148682910604e-05,0.00017741130604766704,0.008884361052782938,0.02035585201712594,32,23,90,65,4
4.883568828676649e-05,0.0001763869968015499,0.007747738099258537,0.018970983262448855,34,20,88,69,4
4.749796732771284e-05,0.00018255429471169277,0.007193213881191506,0.019369378742595932,32,27,82,70,4
4.576329074044904e-05,0.00015961574181082262,0.007115767804667228,0.019034210858581327,36,34,80,67,4
4.580138212349611e-05,0.00017495236779319838,0.007896442040227696,0.019455035748154076,40,31,75,67,4
5.4179261391297114e-05,0.00021301838534293357,0.009082950738177362,0.022224201461140427,32,20,80,70,4
4.718365015008808e-05,0.00019150624126685971,0.008739713504993649,0.020182284758009667,34,19,89,72,4
5.373151913410859e-05,0.0001762824007641442,0.009334681798839298,0.018966596143925266,32,18,88,81,4
5.579521318082875e-05,0.00019498472915075113,0.008869192564802956,0.020249809689318225,30,17,96,74,4
4.562629877740032e-05,0.00018424338407192645,0.0074261352164227004,0.016822634445955262,32,20,96,73,4
4.348250737703072e-05,0.0001590517915635778,0.0071686573223528295,0.016822928502873164,36,22,97,64,4
4.2072456027993504e-05,0.00015710863597598773,0.0072066937958264864,0.01723517353571089,38,22,89,63,4
3.9253250455612296e-05,0.0001715078861550206,0.007491180887000353,0.01740395530204387,46,23,90,68,4
4.47692206390272e-05,0.00016522801779162883,0.007750795357755368,0.016081742478229657,34,18,83,70,4
4.754669605417749e-05,0.00015464248827379388,0.008657847557552306,0.01790139114408106,42,26,87,70,4
0.0002938029561402397,0.00027163896494144694,0.019679089317846506,0.025558531644782632,6,22,76,58,4
0.000437294949398229,0.0012871428134858028,0.02696839958403829,0.07652063465140331,6,4,53,44,4
0.00044521618993022467,0.0012901057597671716,0.02688229952748116,0.07478386639883994,6,4,57,68,4
0.0002215732657003735,0.0012263293024039198,0.01685466182150403,0.07031310374394148,6,4,66,66,4
0.0002050168502255033,0.0011361364076624234,0.015343589249020047,0.06758439846180253,4,3,69,67,4
3.7164689694589856e-05,0.00022669945384582433,0.006709399128828781,0.0203121690002346,34,14,84,63,4
4.007710337314019e-05,0.00018937661125353154,0.006958555181645753,0.019998872369253174,34,19,84,68,4
3.6158182930428274e-05,0.00016245663193001283,0.006213233611627799,0.014395235954297508,28,16,87,66,4
3.5883278209277964e-05,0.00015549660719829542,0.006677812517765276,0.014763767743638745,30,23,88,70,4
4.0300405066501314e-05,0.000158816589664944,0.007127127702186562,0.01619566356611394,34,22,82,73,4
3.740959346785373e-05,0.00014802565194220056,0.007078499480009118,0.016971683160951972,34,27,87,65,4
4.0514560477846756e-05,0.00016722804494664667,0.00752255021245356,0.017730150874732824,42,20,78,71,4
3.798327720506523e-05,0.00014769534521978753,0.007228652437648207,0.016497853689624378,40,21,79,69,4
3.643214395283563e-05,0.0001641284982407176,0.007064491720282614,0.016519068241537538,38,22,80,73,4
3.930766514230336e-05,0.000135786839376084,0.007092478303044331,0.015446617595279424,30,24,75,65,4
8.343622712473289e-05,0.00039436270265117963,0.011126860308583496,0.03360384669755962,22,14,73,52,4
0.00020997095832897466,0.000896353438499933,0.021759026328645317,0.08618902383858772,10,10,74,47,4
0.00048741211947633643,0.002043669991777305,0.050480480212360734,0.1854454698916832,8,14,66,54,4
0.0007742403719287859,0.0035470711584479242,0.08095057112054131,0.3464108981885751,15,22,61,46,4
0.001070743921757177,0.004837739757882513,0.11267861593888816,0.4815556116970894,22,28,62,52,4
0.001165961793711161,0.004651359407577399,0.11877243923234497,0.4825849626563172,28,30,62,52,4
0.0009484671122901335,0.004231388512047126,0.1040253815362741,0.44766603296167007,24,26,60,54,4
0.0007084195607335057,0.0028564279847584223,0.08382458491786723,0.3483631206095131,24,24,68,60,4
0.00048519069815824566,0.0018897875145135795,0.059474978924945666,0.22825541982257508,24,22,74,54,4
0.0003504002666750434,0.0014418246960394298,0.04680867896611738,0.18311994386391584,22,26,76,64,4
0.0002679446251429983,0.0009209976375601355,0.036170628966702555,0.12229898679780642,20,16,76,63,4
0.0002146879897427752,0.00047959001700003447,0.025361304221855903,0.055441300232239046,14,10,71,70,4
0.00013294425440471476,0.00023302787539396035,0.014980540645161446,0.03000199241471832,24,28,82,68,4
0.00011786829944169037,0.00022415419958995042,0.012248511855633738,0.027718103853212602,24,24,78,68,4
8.107691504777213e-05,0.00023973685106283584,0.010505765083399348,0.027994884339975278,16,16,86,65,4
5.818907155682889e-05,0.00024391755191483712,0.008917717444912895,0.02975320415944704,18,18,92,51,4
0.0004110035554991599,0.0012994336024924028,0.07152370022522102,0.14092731393053423,48,24,85,59,0
0.00039409900383643185,0.0015454773566025597,0.06146871901250729,0.15303278637519663,40,26,83,55,0
0.00039735759355867116,0.001739310262228452,0.060576083171128066,0.15564408472964864,36,18,75,51,0
0.00038010166973540796,0.0014659950535231892,0.05668191882230611,0.1545640473701268,28,20,76,55,0
0.0003665182537439197,0.0016595978296826425,0.05569194673488918,0.16722252404472487,28,16,76,55,0
0.0003348830530276092,0.0015769677220557224,0.05816929534078418,0.1472457461962278,32,12,82,59,0
0.0003177292698288878,0.0015499454307174281,0.05549457579884383,0.14245487350297245,36,18,87,52,0
0.0003466029068359584,0.0013671829550273304,0.06003385776620486,0.1365027059321701,48,18,80,60,0
0.0003112890921572877,0.0011953011204521708,0.05413396598560598,0.13023567493185154,42,30,84,55,0
0.0003082928548473768,0.0011336735287102338,0.050730456080624986,0.13805758834200743,34,32,81,62,0
0.0003434712653685014,0.001133313483942044,0.051495481518630114,0.13692430818396115,38,34,76,58,0
0.00030486855812720073,0.0011702218697778744,0.04684421901999392,0.13269393429466947,30,32,85,64,0
0.0003185446185048099,0.001191199372229676,0.045895676172577254,0.12395846796052053,26,28,84,68,0
0.0002888285516921155,0.0010520948669278205,0.04495289243226711,0.10946878477933136,28,26,93,71,0
0.0002611553438397131,0.0010557894011778571,0.041093441353558385,0.10776954923557691,32,30,94,66,0
0.0002485735487276255,0.0012217184143863615,0.04375106971920796,0.10659490063828254,38,24,93,61,0
0.0002607948751834006,0.0011807404691241245,0.0456794303015743,0.11576238464256634,42,32,89,65,0
0.00033325960877367896,0.0013686005832332885,0.05137969363622921,0.13860342130680534,40,28,79,62,0
0.00040612983228367685,0.0014516010352984795,0.05864818300817835,0.13626321294884908,28,24,80,60,0
0.0004326870734224997,0.0019360951552953338,0.06246551423657106,0.1635144856363412,34,22,79,54,0
0.00043489788002257365,0.0017943860528938662,0.06727828601418523,0.17272148355567216,34,16,70,53,0
0.000409170718670393,0.001833142006388376,0.06496927403925332,0.16330015232311118,36,18,80,50,0
0.00039845112920070517,0.0019479404381498215,0.05887732149521737,0.16267045406967054,30,22,81,53,0
0.0003352601381761528,0.0014734234417582168,0.053904991082700617,0.1584348279784873,36,28,82,57,0
0.0010944862339675983,0.0013526308990576873,0.14761223165786538,0.1528533655442284,26,26,73,71,1
0.0011123857462549034,0.0013662715009247434,0.14780311384742342,0.1560399476125298,26,26,70,69,1
0.0010787721245978069,0.0012781254043721865,0.14263818181641133,0.14232448880926454,24,26,70,65,1
0.0010049647382180153,0.001363231296368414,0.13148196096274797,0.14617161171214518,24,22,71,67,1
0.0007972408576827998,0.001307404073747565,0.11914939256280034,0.1455579956856206,34,30,79,65,1
0.0007234080330861729,0.001355334194273458,0.1177918265269569,0.14995935967673746,38,20,85,59,1
0.000716349500220026,0.0013023638536171652,0.11485972531040682,0.14551554997733254,42,20,86,72,1
0.0007163302475902969,0.0013350376912092546,0.11446633111169928,0.14230209348995926,32,20,88,65,1
0.000771127896958897,0.0010899337232640797,0.1217144055068504,0.1217482469282927,20,22,86,76,1
0.0007228798066099704,0.0009212950935951976,0.11878334969196987,0.10617616541116302,24,24,78,70,1
0.0007134644213395347,0.0009646451898600721,0.11266851446996913,0.10852040681029503,30,26,77,69,1
0.0008806857710608379,0.0007919285840734356,0.11427507325127921,0.09139718461854114,22,26,73,68,1
0.000699541173360665,0.001138107134763039,0.10435131477441681,0.12525230149933447,32,20,77,62,1
0.0007476113864827895,0.0009731293183733369,0.09921525064421292,0.11353688502126012,30,20,79,72,1
0.000705602112732788,0.0011061157353574728,0.09694290908852624,0.1291347797447032,30,26,79,64,1
0.0007254144952713638,0.0010780115090874448,0.08990162294705162,0.12540796559194664,26,18,76,67,1
0.0005847617136028146,0.0008311713830659401,0.08398987911604956,0.09996179570031452,32,22,81,71,1
0.0005379377428200877,0.0009664442743804549,0.07693477788126722,0.11356428276068375,32,22,84,58,1
0.00046207560060989894,0.0008395000323917282,0.07319153225459925,0.0942102846376674,30,18,87,56,1
0.0005052112224780827,0.000897471497218829,0.07804254071010523,0.096639259692193,28,18,83,61,1
0.0005165884179048418,0.0010730688434064,0.084395252412628,0.10221865537401574,38,20,83,62,1
0.0005537002317830734,0.0009845023054213151,0.09323925464449985,0.09785572078195448,38,22,83,64,1
0.0005988474902957751,0.0012236379470995128,0.097020868469058,0.1203990017752961,40,24,86,58,1
0.0006184343064766966,0.0012332767899312313,0.10201589060366424,0.1214842099700588,38,22,82,59,1
0.0041533475624183054,0.0005747734889585396,0.5036316850470066,0.10749050724936968,20,46,86,82,2
0.00368013721528951,0.0006577928845987167,0.4968899281045601,0.11276481059751642,24,34,77,77,2
0.0037822469435780963,0.0005947498177644396,0.5231208557280072,0.10929843551431724,30,38,71,82,2
0.003473193182856814,0.0005284987671552746,0.5049895109536737,0.09732599627147405,30,40,71,84,2
0.003138773240250409,0.00047976724822831467,0.4782063758842571,0.095289183148393,32,38,70,84,2
0.002798560228197484,0.0003556786094324011,0.4052947388612337,0.07322078350889553,28,38,74,94,2
0.002253777536271911,0.00036304015412278476,0.34836855612259043,0.06964476454046292,30,48,80,91,2
0.001982632434370454,0.00036901218736319104,0.29772478251114204,0.07234368645698204,32,46,81,91,2
0.0016643598378412337,0.00042203767901821015,0.2757885606737422,0.07475655593335359,32,40,82,89,2
0.0016806965406757155,0.0004163349419030837,0.2765424075652309,0.07952750299499198,34,40,75,92,2
0.0016838671747645662,0.00039928712640357073,0.2885265886530859,0.07670842091770452,42,48,78,98,2
0.001693379497494392,0.00037662787309198774,0.27922802433634625,0.07074202375455847,34,44,78,98,2
0.0016175924124253332,0.00035386895128297917,0.25534907941279045,0.06157831913289619,38,40,81,97,2
0.0016889464514242406,0.00035335723725541377,0.26605898836798375,0.06605998113010313,36,40,80,100,2
0.0017190517072171016,0.00035325092444646073,0.24828698918991773,0.06986564833184562,34,46,79,91,2
0.0016219002568528874,0.0003594684564607565,0.24944611536398015,0.07675642656567433,42,46,81,89,2
0.0016695477714457686,0.00036006324007187084,0.25379080937076315,0.0757712102814703,30,40,77,91,2
0.0017345217090378021,0.00036174355546147,0.2592721922119835,0.06746634774197027,32,40,80,87,2
0.0015782033726284889,0.00034206205280817777,0.25228153204584197,0.06920652389289027,34,50,84,93,2
0.0018334890500373224,0.0003228784975193151,0.2683123119361798,0.06166324246059962,32,48,82,93,2
0.0017012993051974924,0.0003308109396180967,0.2640113332825672,0.06420196904817035,36,46,89,92,2
0.001662884592462592,0.000343435550437499,0.25520734486526503,0.0670808592762414,38,50,81,97,2
0.001678815630382051,0.0003079620319797123,0.2531597922529717,0.062475995997251434,36,44,83,96,2
0.001372379574891065,0.0003133293065960837,0.22452785477886694,0.060810803373829346,38,40,85,101,2
0.0008744593676750613,0.003091731820911972,0.13321593770310583,0.40436245056277836,32,24,75,62,3
0.0007911286638757574,0.0026366565852886997,0.1208442057995751,0.36516793557057664,30,32,71,62,3
0.0006999828122111677,0.0021810284781182358,0.10216534539838824,0.3195947597754567,34,34,71,64,3
0.0005713333534801809,0.0019505886117859295,0.0828831043358092,0.297125470420269,26,28,74,69,3
0.0005792807139195357,0.002062830809920697,0.08048018492388558,0.3060471190012858,30,26,69,73,3
0.0005386546035808181,0.002005782868553646,0.07993884101994599,0.29642256384550575,28,26,71,70,3
0.0005310911307144432,0.001917533223037861,0.08774678455533323,0.30167274970350405,34,32,72,75,3
0.0005865421299816658,0.0020425080006929485,0.09036923637293068,0.30132448171177034,34,28,68,72,3
0.0005698450979625985,0.0019377320718504934,0.0937589477805718,0.29111674863036935,38,32,76,67,3
0.000738178109283609,0.002339626081419607,0.10605787937807379,0.32227113157451187,26,28,67,70,3
0.000697689493073682,0.0022420275775582267,0.10285427170203591,0.30940957171902145,24,28,70,68,3
0.0007522153835197282,0.002473425380450897,0.10878932614877068,0.33156283130347414,28,30,66,64,3
0.0008183866274311454,0.002644203905682754,0.11473919027858585,0.3586107870525995,30,26,62,67,3
0.0008177485733287194,0.002557377263823869,0.11082381769946603,0.35209284932029294,30,22,72,67,3
0.0007825987845557404,0.0026857087701479972,0.11135166329993977,0.38600632093547893,36,34,69,65,3
0.0007427055841424772,0.002578611719708769,0.10404903356592174,0.34892424988131066,30,26,68,64,3
0.0007230958531880961,0.0022915888034342486,0.09588109164613542,0.3213103095210288,28,28,63,69,3
0.0007056598491904495,0.0021858309451337305,0.09526786127336681,0.321425938748064,32,32,56,70,3
0.0006677974904308488,0.0022437921905540726,0.09592843530545195,0.3141143453727915,36,32,62,66,3
0.0006739733949183903,0.002332310086044097,0.0989209800901048,0.3299933019983739,38,32,65,63,3
0.0006319567367123701,0.0021920602668038156,0.08981199828535841,0.31213724165018625,30,30,73,65,3
0.0006144118802210514,0.0020419813287253685,0.0826403831898024,0.2715400834602829,32,22,74,69,3
0.0006847190429314265,0.0022958427479057345,0.090413004266946,0.30009078256830835,26,30,66,67,3
0.0007347379579959718,0.0023653413965588387,0.09228810539156831,0.3042626426077497,34,20,66,68,3
5.299851268382115e-05,0.0001706684654191584,0.010050088852276961,0.021930978367828157,38,24,78,78,4
5.2936843058105866e-05,0.0001731775536248297,0.010483055734978633,0.022068307494110574,34,24,87,82,4
4.3911895960574754e-05,0.00014787296581434615,0.008831150342703088,0.017323602173750292,32,26,88,78,4
4.369368368454726e-05,0.0001635053949568649,0.009069078482812059,0.019857464689168394,34,24,91,79,4
4.622734129152654e-05,0.00016341681578579552,0.008915385502213815,0.019475996732443403,30,26,90,69,4
4.759030219506606e-05,0.00018193504747950165,0.008927435299788537,0.020497922309752652,28,28,83,68,4
4.8304308168369055e-05,0.00018486262741639775,0.00929705148737318,0.02186326908914584,36,32,83,70,4
4.8855360265545016e-05,0.00018745630298304245,0.008700556657082447,0.020236190083434233,28,32,81,65,4
5.007946330388985e-05,0.00018155862876338913,0.00971598396966176,0.020851412813253194,34,32,78,70,4
4.515602637765273e-05,0.00017500983252213896,0.00929429323302799,0.022585002200796206,34,32,85,72,4
0.0004399100940867854,0.00030481828463490147,0.028804216218528966,0.030503951870650504,5,20,80,67,4
0.00046636075741316374,0.00034750800046424323,0.029636634412893107,0.032769788310278686,6,18,78,54,4
0.0007672925384350758,0.0004174697212370807,0.05885455240106217,0.042712503493343434,14,20,69,57,4
0.0010297869006024396,0.00042516239324086026,0.09960892439291098,0.0470442115838385,20,26,60,75,4
0.0007829305574472382,0.0004428773999586688,0.09642038292588079,0.05003648674815323,18,28,72,77,4
0.0008305408634750909,0.001659536567030832,0.10637111389743278,0.1576906169506967,22,10,68,57,4
0.0006658114175579128,0.0024162770181973643,0.08567513877660345,0.20148524483390975,30,10,71,53,4
0.000405923126627866,0.0033825583326174092,0.048915441661597316,0.2376890936714423,24,10,61,44,4
0.0003891483055674055,0.0033897426134271652,0.03806029775368327,0.22994374248443022,20,10,66,35,4
0.0002226833199327836,0.0020200263384486787,0.02265728848114994,0.11854343748489993,24,6,68,47,4
0.000172469615624061,0.0010990949828354026,0.016984317681922788,0.06542413815523909,12,6,76,50,4
0.00011081193383926501,0.00021873011593948302,0.012001606188157299,0.022785888684944182,16,18,81,63,4
5.778753945576188e-05,0.0003257555025456071,0.010706523582061674,0.031583336707886364,36,14,83,64,4
5.9416257256861316e-05,0.0002622780144154032,0.01000406444971994,0.027149211115706128,36,21,81,63,4
