f1ch1,f1ch2,f2ch1,f2ch2,f3ch1,f3ch2,f4ch1,f4ch2,Category
0.0012517998455536417,0.00397477952433597,0.12363511589379346,0.36586009939384406,18,18,58,59,0
0.0008963029946531262,0.0033310676607864716,0.09538873240195977,0.31912466651569993,20,20,70,60,0
0.000904726449964791,0.0038862615924196843,0.08983420595750496,0.3715080387118439,18,20,68,63,0
0.001007588559140155,0.004851049709428644,0.09982100066778601,0.4699174815444454,20,28,68,62,0
0.0011280785217957572,0.005638739357238362,0.10457462777844614,0.5280496897640445,18,24,54,57,0
0.0012705319728528624,0.00627496625644116,0.11090865518945875,0.5991580820555419,18,24,52,53,0
0.0010592110095123052,0.00690268692463809,0.09601790130332477,0.6115161142729787,18,20,52,48,0
0.001006316757815546,0.006378802448987637,0.09637704403589228,0.589909817905817,16,20,49,48,0
0.0009968650147840097,0.006131794290345043,0.09877839507528814,0.5781875554269749,20,28,50,49,0
0.0009556883891515293,0.005212222112367771,0.09507098933196492,0.5277054162490419,20,26,57,54,0
0.0010437968975264662,0.005164307721545712,0.1044229102384086,0.5311160466692507,20,24,57,57,0
0.001040604763519215,0.005085187068686144,0.10768156274615612,0.5256681838422192,22,20,61,61,0
0.0010251978924172714,0.005185640405884775,0.1053113063225033,0.5159395246651443,18,20,55,56,0
0.001093301780402798,0.005060543041705648,0.1088382997028043,0.5398056242811087,18,22,52,51,0
0.0010672028703118336,0.00526711567765473,0.10677845599326755,0.5599018327138363,18,24,56,50,0
0.0009519064488302883,0.005327808292488304,0.09995011285705269,0.5544266424901739,20,24,59,52,0
0.0009678566469050519,0.005392933699620877,0.10324016807533715,0.5925763112520548,20,26,59,53,0
0.0009362409960141669,0.005026137085860625,0.09991860504846786,0.5622999709327802,20,26,55,56,0
0.0009148914814528276,0.005019437436088276,0.0908635860816993,0.5376264982596103,20,28,58,59,0
0.0009305400121569489,0.00493227673239342,0.09069939038288279,0.5113281030955623,26,24,53,61,0
0.0009285874406768454,0.004336611570687362,0.08563403433728643,0.47599314383195385,22,21,58,62,0
0.0009137686331024065,0.004565264081796334,0.08915444679479874,0.4749180156577992,24,20,55,58,0
0.0008449309082248272,0.004185949920223894,0.08707403869010934,0.4436352851240098,24,18,61,59,0
0.0008462672059031903,0.004295992082510607,0.0859578621435869,0.43928136083193386,20,16,65,56,0
0.0007727352069466028,0.004042399985238755,0.08973216917804777,0.43086126516219225,22,21,70,54,0
0.0007389367984176328,0.004277052038570811,0.08207726722158738,0.4691192281869121,20,16,71,54,0
0.000897647808383711,0.003802430980193397,0.09023970754355033,0.4488123828962717,20,24,61,54,0
0.0010352305244271678,0.004537259791452275,0.09683919219143734,0.4754160824824733,20,20,54,53,0
0.0009660448919512946,0.004402863232175344,0.08960355275112405,0.44355325441687804,24,24,58,55,0
0.0009209134525653868,0.003983068668358252,0.08967852954739515,0.39150928708031735,18,24,55,58,0
0.0007336694466347676,0.003534508949944731,0.07912379197667978,0.3546908327976323,24,22,59,64,0
0.0009108949671833278,0.004308902276049909,0.07684442137876904,0.37911671270762526,16,18,51,65,0
0.0008285926417101659,0.004004432432612222,0.06773916827433653,0.39105264188419225,16,20,56,55,0
0.0008883629834225537,0.004650044178703326,0.07533377502657511,0.42688358325131,18,20,52,53,0
0.0009833598354758591,0.004547289882723705,0.08019080051787807,0.4319508014078943,12,20,57,57,0
0.0007909484900321405,0.004333490326931386,0.07521307342768348,0.42401004152585614,18,22,61,58,0
0.0008053728029991426,0.004038182935252931,0.07685848736904641,0.3875105708170897,20,24,60,58,0
0.0006330134235973354,0.0035062802257101234,0.0652116589952904,0.34841945722869616,24,24,64,56,0
0.0006498624396057929,0.003292842314447814,0.06996629521626184,0.3456465015222851,18,22,61,57,0
0.0007745027671613641,0.003876166870004869,0.08171629973061037,0.38782282757661724,22,22,60,52,0
0.0009473648588069445,0.004396378966057058,0.0934558076713935,0.45689258367478053,24,24,48,56,0
0.0011720597822610136,0.005028101593704184,0.105942927523086,0.5356414530526998,24,24,46,54,0
0.0011213885339873355,0.005462912092727578,0.0959486481178184,0.5629238662511868,22,26,53,56,0
0.001099550992917426,0.0047608421835345985,0.09895056421728185,0.5088959440952672,22,22,55,57,0
0.001016737237143849,0.004448199108727234,0.09193472611737721,0.4874644372362619,24,22,56,51,0
0.0009663809792090873,0.0038499830244836035,0.08888482253615987,0.418890764271102,22,24,57,55,0
0.0009898481437714641,0.003563874117952367,0.09237933486014098,0.40882130260366145,22,18,56,58,0
0.0010219044467611712,0.004267705012302001,0.09187064048404363,0.44386524071184974,22,20,48,56,0
0.0018621038666700868,0.0044162692976548994,0.15762779109793415,0.3501134271265073,14,14,58,48,1
0.0017635536206027402,0.003378910297005614,0.16440476109199922,0.34482628711766616,18,24,59,54,1
0.0021929594519372237,0.003350431420455784,0.18845175337118403,0.36560739593673663,20,24,54,63,1
0.0020549827409120608,0.004068129253545763,0.19565044703385667,0.4076737771326992,18,24,55,53,1
0.0018494561404431968,0.003971128142162053,0.18630650691175427,0.3774912669029905,20,24,57,60,1
0.001892951221761588,0.003836598255619826,0.20008987938006997,0.37885431061939806,18,26,50,56,1
0.002110600953851207,0.0035032033128473894,0.19953452109648015,0.35150302892587526,20,28,52,64,1
0.0019013216189258453,0.0032949636460057525,0.18211461084144814,0.3356856403181305,20,24,56,62,1
0.001499522789235736,0.003167695834062107,0.16388963936896134,0.3394223462693874,22,26,55,62,1
0.0015254081309532311,0.0028341805101360753,0.1516767157326824,0.30972446713551366,16,26,67,67,1
0.0011650332404141346,0.0029463984688085885,0.13564797959046623,0.29880647986114095,24,28,71,63,1
0.0015636699006285185,0.003164703790707838,0.14581008388936323,0.28112989019515966,26,22,61,56,1
0.0015944108052817919,0.0033242864566463606,0.15694824322846657,0.2939212651169135,22,22,53,57,1
0.0017055058123466302,0.003549889603884381,0.1656569933069411,0.2970399668110081,22,22,55,61,1
0.0015234312934813332,0.0033583615292884883,0.1581782858011701,0.304064777715873,24,24,57,57,1
0.0015933094670144221,0.003316977316878276,0.15515326499886703,0.3188277144782242,26,22,54,56,1
0.0015033402626761661,0.0030129877606277656,0.14755703123795427,0.29415173043576026,22,26,60,59,1
0.0014209782939086876,0.0028022415223823284,0.13197653135408455,0.2887327850379555,28,20,66,55,1
0.001242380649598621,0.002696028085523936,0.131708271414341,0.3033157066376065,18,26,65,62,1
0.0013459086939292277,0.0027340375196331186,0.13336438242645263,0.2909918006394613,20,31,54,59,1
0.0013931842137176022,0.0027563493690285048,0.1293597097894893,0.30580169661862777,20,30,60,56,1
0.0014839412658936967,0.002613582682197936,0.1383834073770754,0.29994595863890583,18,28,54,51,1
0.0014143823919850911,0.002990653830041081,0.1278437754903496,0.28761593398253293,14,22,63,51,1
0.0013497120389645851,0.002878820330003119,0.1194244048642283,0.2787285396180193,14,24,66,54,1
0.0012933416725083038,0.0027836169842635605,0.13629924171538216,0.26016930234268787,24,18,61,58,1
0.0014485171138828982,0.0032569657131791396,0.14591107212241758,0.28835823596898164,22,20,60,58,1
0.0014353859086487348,0.0030912163936033326,0.1470760834169878,0.28929698555295486,16,24,63,59,1
0.0014739876213619599,0.003212703661338646,0.14649325826305404,0.3162902048410512,20,28,63,58,1
0.0012535372173999818,0.0030960865484531653,0.13612525769970416,0.3259582999662972,26,32,61,55,1
0.0010479546622944758,0.0027450210117362863,0.1252472968186291,0.31685273535910385,28,26,68,51,1
0.0011112211130705047,0.002824782831971776,0.129516956340532,0.3234423018339522,26,26,64,55,1
0.0011895644414085102,0.002718803968944983,0.13950570540470042,0.2922501890604573,25,28,71,59,1
0.0012039863540284816,0.002707502897960131,0.13286986201949055,0.2870197616252904,24,22,71,62,1
0.001173021918848361,0.0028367653491182293,0.12249165587862491,0.2854443355336348,25,34,65,57,1
0.001045120884691629,0.002719692990562768,0.11180454036841289,0.2680639277974784,26,28,72,58,1
0.0009691782389769025,0.002899037964208247,0.09266248896579002,0.2762209835737866,19,22,73,58,1
0.0009665627858191112,0.0031683372628178406,0.095637163429689,0.29237342273956085,22,20,77,57,1
0.0009288540847407674,0.0027026186868015644,0.09738546680547486,0.278384473248741,24,20,72,52,1
0.0009793677639922758,0.0025881581543761045,0.10620255797590454,0.2540139844212234,22,22,66,52,1
0.0010537704905772619,0.002500126264816274,0.11835675215996878,0.27288027235277396,22,28,71,50,1
0.0014462521075644913,0.003252789140309662,0.15638630901296968,0.336621706027792,14,20,66,60,1
0.0018727953356712538,0.003332331355298204,0.17958395572221905,0.3604598310974763,18,24,67,56,1
0.0019465822622716422,0.0037231093734906118,0.19724907680564832,0.3965105787267801,18,18,64,61,1
0.0022979945210959145,0.004438694136068944,0.2248834067327621,0.4349952272313279,22,22,56,64,1
0.0020774630917300453,0.0039259579118610865,0.19746572072012292,0.3818461782646592,20,24,54,57,1
0.0021000935552820104,0.0037716362973647492,0.19498259369479762,0.3806730581054319,20,22,48,52,1
0.0019760834520812314,0.0037147538465566034,0.1816546756555373,0.37683025775298634,16,24,57,51,1
0.0018042299472039326,0.0035916757290801716,0.1691317867630182,0.3886151602551019,16,26,58,49,1
0.00011758331275185075,0.0005261514087790323,0.00934121662375278,0.04162172189826327,26,17,56,50,2
0.00012000392937531918,0.0005552368820014226,0.009709923988883915,0.04114574845923484,22,18,62,47,2
0.00011695551833440144,0.0005570289124847925,0.009321829973911067,0.04146912928188748,22,22,60,50,2
0.0001187184696987044,0.0005366024541131332,0.009254759719915549,0.04318147081149966,22,18,62,50,2
0.00017492737789881092,0.0005963720657410749,0.013956472095360932,0.04502328792490668,20,15,55,52,2
0.00018921331511730568,0.000637856112744021,0.015375186768044271,0.04537921960314992,16,12,48,49,2
0.0001882908950346334,0.0005912002701075166,0.015593991030912127,0.04346240894068354,14,17,48,44,2
0.00018899129786274264,0.0005916346373789788,0.01534236511226479,0.043383766778194006,12,16,48,38,2
0.00013268141198007513,0.00044704695047067774,0.010420623103712731,0.03591033487215097,22,24,52,44,2
0.00011845860216221173,0.0004816433135353248,0.009657869000663476,0.03708965969768345,28,18,50,49,2
0.00011698183952554309,0.0005517939918011005,0.009641348624562356,0.04033932318112944,28,11,54,47,2
0.00011134535620165397,0.0006271261469530408,0.009025253285315442,0.04226340651592631,22,8,48,48,2
0.0001155999460082304,0.0006133974334471604,0.009113993698372614,0.04089348946753113,20,14,50,44,2
0.00011286361164118963,0.0006845330022056241,0.008823646162975015,0.04181346417457798,25,10,56,26,2
0.00011111720327562048,0.0005547531198922807,0.00867666905819692,0.035997642361627245,26,12,56,36,2
0.00011647307977942339,0.000480476292537465,0.00881663123926668,0.03211666603100399,27,18,58,40,2
0.00012041308008390996,0.0005147646791486245,0.008693988422467066,0.03482406094016013,18,14,48,42,2
0.00011926860738357094,0.0004961537701987865,0.008425381391424994,0.036442467536151914,21,16,46,50,2
0.00012751115409894196,0.00046893721081169444,0.008426657674753533,0.03640121086379007,20,23,44,44,2
0.00012851058946198972,0.0004504004459405019,0.008327007110573468,0.0330580378870197,25,14,42,48,2
0.00012069745863667326,0.0004594118796659025,0.008029148136327395,0.03356046112154559,18,18,52,48,2
0.00011985075668279165,0.0004686892641132406,0.007732204410684536,0.03610383530566703,23,22,54,44,2
0.0001242332239490583,0.0004754078388887695,0.00811256111881602,0.03702175307087825,18,18,58,50,2
0.0001274537466931632,0.0004673989891656718,0.008137921331835659,0.03822892802531779,23,20,48,50,2
0.0001296369016572111,0.00044000204599946806,0.008659208755348579,0.038064677851315974,22,18,48,56,2
0.0001690785929534825,0.0005187838021681583,0.01172476447743328,0.04091575088162242,21,14,45,51,2
0.00019274445373861041,0.0005225005877611061,0.013466717922468332,0.04009232892465553,20,16,41,52,2
0.0002146942525767704,0.0005153781322641066,0.01505622294402928,0.04226222399907665,20,14,42,51,2
0.00022429623011167136,0.0005288385075250818,0.016502190952525236,0.043898380197449606,16,14,50,52,2
0.000269066757320028,0.0005291095936298118,0.018844285816129694,0.04587515588472331,13,14,48,58,2
0.00026358176545682594,0.0004996168647723121,0.020562538610515553,0.04505162591527442,18,18,48,56,2
0.00027505401252786064,0.0006313686512481038,0.021944348430489195,0.04996385971841735,18,16,52,52,2
0.0003803783842315243,0.0005977822780856491,0.030896599384372066,0.04967009674426195,10,18,48,54,2
0.00033637995926997415,0.0005407922221291768,0.03033692933429913,0.04684594318651102,18,18,51,56,2
0.0003273594300798235,0.0005391807502634489,0.02942742944371544,0.04878988054873507,18,14,51,52,2
0.0003508059603526539,0.0005728520677403875,0.030490210406542477,0.04630034608701225,14,16,53,54,2
0.00023292534576129016,0.0005766823201173377,0.021477477806340264,0.043928600670766045,16,20,58,47,2
0.0002559545868486579,0.0006066984044332057,0.020699219989052102,0.043882242407580575,21,14,49,46,2
0.0002526646958375797,0.0005559202434419534,0.020177711237343632,0.0447664875498577,16,18,51,46,2
0.0008463448024758689,0.0011225886111415706,0.08448777328979303,0.10144133461643096,11,16,56,38,2
0.0012190317185268116,0.0013980917201421115,0.14248304981998564,0.13588941661685808,20,16,55,47,2
0.0016957145311339442,0.0016167782600836024,0.20511471123011005,0.16773392208728527,24,22,60,59,2
0.0022180974992702758,0.001739041538205991,0.2659794141733343,0.19654572846983648,22,20,57,67,2
0.0018299229634923405,0.0017560149185942198,0.23214959380265712,0.1905443176444488,26,26,66,72,2
0.0017267346152136716,0.0016986786797956006,0.2045844863649137,0.18275428892225426,22,22,67,73,2
0.0014315591193506789,0.001710895615368034,0.17699928511434682,0.1709726290787269,28,16,66,66,2
0.0010661929977160442,0.0017747219678488186,0.14696577411258482,0.1659439947976558,40,14,73,62,2
0.0012483517028488269,0.0016655797385023488,0.17167557439651035,0.1810954585874865,36,18,68,56,2
0.00014707502344126982,0.0005554888207163227,0.009226147552857205,0.03879321994541221,20,20,42,35,3
0.00014637871108616105,0.0005666650969412912,0.009195750795137804,0.03859484396531778,23,20,42,39,3
0.0001521971170637288,0.0005210341284265134,0.009234682574124749,0.03398141279562514,20,16,41,34,3
0.00015122986920105652,0.0005283701623753259,0.009050557071039217,0.03302627862638575,19,18,44,32,3
0.00015437904944584567,0.0005121673211368692,0.009004405104133957,0.03453208483159925,18,20,44,33,3
0.00015363317835696952,0.0004993987052896916,0.008998939347438329,0.03289407314709401,23,18,46,32,3
0.00015537137711619755,0.0005267515231745064,0.00894020934061321,0.034331489258457554,20,16,46,44,3
0.00016018531616399448,0.0005143511426709131,0.009123409293725009,0.033405835934916056,25,16,56,40,3
0.0001542979103847671,0.00047215706021513595,0.00929535875302704,0.03280910125640188,22,22,40,45,3
0.00015774903177612044,0.0004913348054660456,0.00918043147073884,0.03385067106307585,17,18,48,44,3
0.00016280793234449344,0.0004692134043111132,0.009457614232381143,0.032965016794956205,20,20,42,38,3
0.00016047298251498446,0.0004981145761153857,0.010024111470662844,0.03305193788618567,19,18,50,34,3
0.0002405794340897879,0.0008485614530995688,0.020836277460122968,0.06893451898385274,14,7,46,52,3
0.0006383925452253767,0.0036820009425508797,0.06660594877187608,0.29730118058213917,13,8,49,37,3
0.0014448492583934505,0.006053236182726648,0.1362296064871309,0.6082184019027843,16,16,44,43,3
0.002403656104540992,0.007621069928499575,0.22715655251847566,0.8033933860225932,14,24,47,42,3
0.003038728933571788,0.007998146822776279,0.2964208257469599,0.8959430926388485,20,28,44,46,3
0.0034716427979329125,0.006862739309596234,0.32129121918709624,0.8585527193375724,18,30,48,50,3
0.0035502871806988214,0.006306195979016506,0.33356455482617414,0.771403771798445,22,30,45,47,3
0.00336440796212981,0.0059219431395253095,0.32929758166285295,0.742105187017249,24,28,50,54,3
0.003759767500982304,0.007138306026833335,0.35023237465385776,0.8616773029849841,20,26,51,52,3
0.0033785280240862243,0.008058355003038434,0.34781661745968995,0.860116711084909,18,26,52,52,3
0.003421284186794553,0.007712438139098054,0.34442827967491585,0.8589589923904919,18,22,46,51,3
0.003674384403886988,0.008141606307646647,0.326290103048335,0.7887231081298044,16,24,48,52,3
0.003348915249250192,0.006616390335526182,0.28621704741318604,0.6732203083184104,20,26,42,52,3
0.003434692386714209,0.00600708192506836,0.2789970733347072,0.6043495977878512,18,16,39,51,3
0.0026578756024765752,0.005193338878748832,0.24822679817341553,0.5364953092815982,20,24,44,50,3
0.0024603472712259812,0.005070688180465613,0.23312290485209647,0.5608923693424167,22,20,46,57,3
0.0025748223253525214,0.004442416706332,0.22103446321738118,0.5411211745538811,20,28,53,55,3
0.002298338925122608,0.004196099699170225,0.20940372694192388,0.4994891061558979,20,24,54,56,3
0.0022623615665475025,0.003717847341676087,0.2015730799655345,0.4528712636689925,22,28,51,63,3
0.001962960993988441,0.003357087986829169,0.20502756587671478,0.3975538543425824,26,32,53,64,3
0.00193661063794918,0.00313173481815339,0.20034618338690663,0.39194121765275397,26,28,48,62,3
0.001824017083244968,0.003025227950784321,0.19657436441913892,0.385700904694392,28,30,49,69,3
0.00163540222321542,0.003313751748941723,0.1835079310173197,0.41243005871567806,26,22,56,68,3
0.002002527069567764,0.0031504206109845834,0.1924818619255805,0.419030747777661,20,32,47,63,3
0.0019004781451746513,0.003409887658515125,0.19560595666987227,0.40437643067256646,18,20,48,66,3
0.002147812307783833,0.003602702154370401,0.20432192520061848,0.4181693425435987,16,22,48,65,3
0.0021899282779856612,0.0034363609722556704,0.2049002467807476,0.4068483324015651,14,16,48,57,3
0.0019956918737050475,0.005447854696143382,0.20105770735267936,0.5479003421137426,16,20,50,58,3
0.002151926487047512,0.007395444836041581,0.2067623595809685,0.7688092139139204,16,20,56,56,3
0.0023370519037607274,0.008123550465278058,0.23192870192635343,0.8280627328643985,18,24,60,52,3
0.0027773848806416945,0.00857543927184553,0.2532332667561036,0.921752224771691,24,22,52,52,3
0.0032949922400893304,0.008026080752498964,0.3061894858257597,0.8603693124777265,18,22,51,55,3
0.003589114751828632,0.007522668951786747,0.33254981526435917,0.7503339030866106,18,24,43,57,3
0.0039532751838057,0.006805448665059162,0.34412742799730056,0.8027047424344478,20,26,43,53,3
0.003830089839639812,0.00706404923370568,0.36369620385040324,0.7782615694493734,20,24,45,47,3
0.003301444657947133,0.007516654833368064,0.3178577848527944,0.7835209948804925,22,22,46,40,3
0.00016813458319772423,0.00046365161570138634,0.010726054488126916,0.031484655243162275,18,18,48,49,4
0.00015354860241842346,0.0004477677643368909,0.010188637427779448,0.03084838248588534,20,19,48,41,4
0.00014814653939005642,0.00048319621061770337,0.0102834916174605,0.029463590978235157,20,20,40,32,4
0.00014644799692161618,0.0004988006511902196,0.010579907429235848,0.03022295315394809,24,19,46,28,4
0.00014914681391792577,0.0005101258898775469,0.01083659314594567,0.029961082700919673,20,18,42,28,4
0.00014331474746236313,0.0005092404200080039,0.010678580276932028,0.029747405390807773,22,17,44,26,4
0.0001466765732229979,0.000489897796128141,0.010382639942866005,0.029515920424604932,22,18,39,25,4
0.00014300150642588047,0.0005065472130576816,0.0098629052711772,0.029075921003728352,24,16,38,28,4
0.00014681902217316507,0.0004870179434088254,0.009588513283733108,0.029659932468546226,22,18,32,30,4
0.00015004217385541915,0.000505994101304334,0.010032702037919875,0.028762758076666423,18,18,34,34,4
0.0001509533937055074,0.0005109150533637328,0.010423722474096089,0.03211042330607673,20,20,42,35,4
0.00015098410624047297,0.000521244598315308,0.010402279456589317,0.03141523141037593,18,18,46,37,4
0.0001509007883676278,0.0005171488346069117,0.010317922878137065,0.03128276458233727,20,18,42,29,4
0.0001492453456726448,0.0005178306876924692,0.0099220672504595,0.030331637564713413,18,16,36,30,4
0.000152141012728371,0.0005099733758470617,0.009895714595742813,0.029228285004258538,23,20,38,28,4
0.00015230014955965518,0.0005037178910208016,0.009782810143633348,0.028518264045691265,20,16,36,26,4
0.0001528689443660594,0.0004983577522415608,0.009935158238613687,0.028521547925310062,21,18,36,27,4
0.00015386512704970324,0.0005101879868256709,0.00984853819428201,0.02866799087691255,18,16,36,31,4
0.0001563181132554561,0.0005055851326416775,0.009716840696586992,0.028134115168710578,21,20,32,31,4
0.00016045809795452198,0.000504113265502638,0.009887520826868525,0.02970981413442832,18,16,30,33,4
0.00016313732312706858,0.0005068692109368183,0.009992554881129406,0.02914899407496851,21,18,30,31,4
0.00016611734068416436,0.0004986010274249852,0.009977060772913118,0.028077073073095753,20,16,30,29,4
0.00016922397823055695,0.0005033699534839504,0.010084429490966607,0.027427064017906115,21,18,28,21,4
0.00017399330085261284,0.0004948369669987199,0.010257216344880133,0.02716858129022889,18,20,32,26,4
0.00017322668015426492,0.0004880763210265536,0.010290138468151317,0.027513796714095585,21,20,36,26,4
0.00017941990756665537,0.00048551349890056986,0.010510275690396661,0.02805557668986122,20,16,38,30,4
0.00017805153219824544,0.00047457259204379635,0.010414353051707114,0.027915999627528713,19,18,32,24,4
0.0002985066819577608,0.0007721324940881532,0.017769383152251544,0.04830851803842872,20,18,23,25,4
0.0003726630430843598,0.0009658521815427561,0.024117484803665573,0.06705481568427359,18,14,25,27,4
0.0003541729264814709,0.0010479728793790963,0.02270243190230986,0.07094823296281873,16,16,43,31,4
0.0003222804583975208,0.000926463528157668,0.021055041845717916,0.06399690779554601,12,10,45,44,4
0.0003052264605080397,0.0012024270206747142,0.023465042053563152,0.0886923213620893,20,12,52,32,4
0.00024268025273574607,0.0010751141352474864,0.01991305681230898,0.08064234267090355,18,12,48,40,4
0.0002680240785698268,0.000992088534485212,0.021309357892454524,0.07482558557439026,21,12,50,50,4
0.00023348206415012718,0.0008742461045431601,0.017937613483875927,0.0719529083573524,12,12,50,41,4
0.0002011137097476475,0.0006635653199250546,0.014091986978823865,0.048722278323701636,18,19,61,42,4
0.00020691164037707732,0.0005823921646993346,0.013076759690672188,0.0409638546885302,16,18,51,31,4
0.00016270964100768923,0.0005242440051221933,0.010949007527581173,0.040608687669707294,20,21,42,36,4
0.0001724916373655746,0.0005069045781659608,0.011330451172316605,0.038310010460994935,18,18,50,40,4
0.00017596599270599145,0.000533010842962299,0.011014626259607122,0.03875394351804994,16,23,46,40,4
0.00017401126091759242,0.0005374955206912965,0.011123287527122407,0.037689073292971643,18,20,54,40,4
0.00016344148188056156,0.000523334942353558,0.011000020139990829,0.03498491373566541,22,21,50,44,4
0.00018016915582062367,0.0004953585011605232,0.012180167533568239,0.03261960701118829,14,18,42,40,4
0.0001890044339466681,0.0004972816397849665,0.013479681450675619,0.03465673768279137,18,17,45,41,4
0.00018869386276750176,0.0005306383058051124,0.013208380410056935,0.034856672236704286,14,18,46,32,4
0.00019185884545096067,0.0005623599439026738,0.013163735671098473,0.03577871993941684,14,15,46,30,4
0.00018535497663720854,0.0005633468690083338,0.012513004531912526,0.03643375893922731,16,22,55,34,4
0.00016554098104036298,0.0005711946294964179,0.012129289357971662,0.03558305519436357,18,21,40,38,4
0.0005789999682893483,0.0027699650720481627,0.06034747749858071,0.2792111601102824,22,20,52,56,0
0.0006791353968423389,0.0034121383235051167,0.06413041076603683,0.31078485245894677,20,20,54,48,0
0.0006702172421687324,0.0033869385046397483,0.06308045987449562,0.32444881754674393,24,24,58,46,0
0.0007084169727618292,0.003503361702202947,0.0616722342877729,0.3193254145466396,24,22,56,50,0
0.000627487451566045,0.003354105187704612,0.06041321850685103,0.30852678111376725,20,20,63,56,0
0.0006974322199322997,0.0031151872085366673,0.06113801860430017,0.2741559799491524,16,14,59,52,0
0.000553333650249227,0.002584164481957254,0.05715814454480143,0.23286346681701267,20,18,62,54,0
0.0005624262506738482,0.0023137394928650287,0.058066667380173444,0.2243064780163995,20,22,58,53,0
0.0005877381600121476,0.0026260875477800067,0.058523283234973494,0.22675550768532057,18,22,54,53,0
0.0007326475513535393,0.0034378745576155115,0.06251363648412604,0.29355573610611346,22,18,56,59,0
0.0007500114029260837,0.004202876545457958,0.06720161857304527,0.3558654156194724,18,14,53,60,0
0.0007148213033988653,0.0048914709302093975,0.06907832178886349,0.4263842692742653,20,20,62,50,0
0.000758576904630534,0.004651711865690855,0.0780890438224173,0.4297905914276555,20,20,58,53,0
0.0007018688155264164,0.0048999098695776365,0.07623853448154377,0.4307231463770861,18,18,64,48,0
0.0006382925485978701,0.004329044682519956,0.07111284054918977,0.4103490242260385,24,16,69,52,0
0.0005963274901712926,0.0031956845817180672,0.07115824877916,0.3453474213785553,32,24,63,59,0
0.0005636177645372128,0.0029354757131013947,0.06155946967669743,0.3108953783664949,26,22,66,64,0
0.0005812924899547046,0.0030537749812762542,0.06015074617522819,0.3117392944270845,22,18,61,63,0
0.0005853442209220429,0.0031624014766792586,0.06073593967913115,0.31870521832572346,24,22,59,65,0
0.000582898024006179,0.0037216406104708705,0.057949919108816805,0.35370842240658823,22,26,58,59,0
0.0006339911622068183,0.0035904999381132746,0.05934118577476119,0.36213495390827977,24,20,57,49,0
0.0006256781130207015,0.0034110721516970627,0.05998363849938765,0.3348521159676261,22,18,58,51,0
0.0006294958134343061,0.0030583086606634693,0.059783383697819936,0.3069632868123553,24,24,61,47,0
0.0005304492474053807,0.002479187515723754,0.05549006728438968,0.24875188857043865,20,22,61,56,0
0.0005296346476604496,0.0025477033681992976,0.05087384029324556,0.23694304806623742,20,18,59,52,0
0.00045942142780947275,0.002492765721747659,0.04481256950828238,0.23502241104920463,16,18,61,54,0
0.0004887967042645482,0.002463121994252099,0.045110451882377445,0.2456640417158495,17,20,58,56,0
0.0004652575150401722,0.002780556972847693,0.04242260621799928,0.27504497085843665,26,20,59,53,0
0.0004566492491041254,0.0025543769916230867,0.04212312601764681,0.27817161299584514,29,20,64,60,0
0.00047013752992756486,0.002808364577706666,0.043989350017170276,0.2874986046164951,26,18,62,55,0
0.00040680302948415477,0.0028256607776297404,0.039828642454484496,0.275083842421811,32,18,63,59,0
0.0004142053058343213,0.0024438192219971887,0.0429848052376179,0.2327532725792681,26,22,65,66,0
0.00041463173384400975,0.0020986312681508124,0.043288787029033174,0.21843024175382494,25,18,59,69,0
0.00038749365240748707,0.0018145075152860232,0.04045448086835247,0.20131340112785018,18,28,65,72,0
0.0004051953925705148,0.0017087449265720802,0.04156992810906232,0.18683677659073655,18,24,72,65,0
0.00036354413791777414,0.0015982406561470567,0.03827940667810043,0.20004682627238984,22,28,65,69,0
0.00033020190171932266,0.0016408014190831355,0.037811688244867206,0.19902761246729603,31,32,71,66,0
0.00036287449836787443,0.0018492253422167859,0.04172055368604187,0.21592237357185212,24,28,64,63,0
0.0003827187435427649,0.001996080240341809,0.03955432382117509,0.2327068268493277,24,26,61,67,0
0.0004072454486208176,0.002207410342774154,0.04159324553793285,0.2377833005130556,18,20,61,66,0
0.00048634758966568714,0.002186848918839713,0.0403422912729813,0.22533618158135296,21,14,62,69,0
0.0004940595869847887,0.0022849507746847838,0.04037716924791156,0.21951334128581715,14,12,56,64,0
0.0005294746033856979,0.0020035203540809624,0.040794375627651466,0.19862616678952275,15,12,62,57,0
0.0005164453162191277,0.0016993631732234132,0.038768759225631506,0.1716840594546116,14,16,64,56,0
0.0005057366358454849,0.0018687958747724365,0.039641708811034036,0.19657970632593802,19,20,57,56,0
0.000461627645758768,0.0015921604568464504,0.04066414052252557,0.1915340453874552,22,26,53,58,0
0.00044771998194828897,0.0018490062892335855,0.04186613645927968,0.20163399984731326,22,22,53,56,0
0.00046826049751034024,0.002490566295927378,0.04305444065732887,0.22647261639155075,20,16,49,55,0
0.0004578813472588489,0.0024054945497439533,0.04370144183022125,0.22503757459166282,18,24,56,51,0
0.0015938938359406393,0.0033825964124645407,0.14831846686313052,0.3476613762536566,22,20,54,54,1
0.0015864910415350725,0.0034133777759208644,0.13997239170956166,0.3208037100202912,18,14,59,54,1
0.0014532380170374783,0.0033715240142618073,0.13520650768512166,0.33973834060860475,16,22,71,51,1
0.0015278924644022724,0.0032165545352184897,0.15047050865962042,0.33302045492312615,18,22,59,55,1
0.0012808087224369386,0.003001266401848071,0.13678252663667362,0.32556749424488846,22,32,72,62,1
0.0017676234132516975,0.003404651223753762,0.15037538510292056,0.36733408380799315,16,26,67,58,1
0.0016483297684959167,0.003032707125339151,0.14934474169397507,0.31157808661192354,24,24,65,61,1
0.001398899124940561,0.0035821745479860372,0.13387450650419377,0.37231509659329237,18,24,68,59,1
0.0015218032171860443,0.0036354648079579112,0.1483888815701125,0.3829522537104547,18,24,65,56,1
0.0011345696226988697,0.00355039039518754,0.1342126318102176,0.3564801243185817,24,16,74,60,1
0.0012554808940874837,0.0036228769818336852,0.1382595768726845,0.38229555448639835,26,18,65,63,1
0.0013168006087288745,0.0033221941623420796,0.13309132788958875,0.33661868009175205,22,18,66,59,1
0.0011814815761799435,0.0028488462278519334,0.11452734905680609,0.2926425874818058,26,20,64,59,1
0.0013654053225860868,0.0023599736921775974,0.12853240151372536,0.26423337990757717,24,24,60,64,1
0.0013381225056228083,0.0023521996405754158,0.12528661412969752,0.26445529974360416,18,20,51,62,1
0.001511449689912095,0.0022667605692709976,0.13770325275210468,0.2639869922226827,19,26,44,57,1
0.0015836606926906988,0.0024080286566158416,0.1406295033309839,0.2830526890388284,24,24,44,51,1
0.0012590447163484714,0.0029942975351521088,0.12485504395716614,0.2989370293319046,19,24,51,51,1
0.0012929324360479294,0.0027701433705915766,0.1204615517859741,0.27597752630458905,22,20,57,53,1
0.0010799540926756878,0.00261811641318936,0.1151002777045965,0.25274375619505873,22,22,64,56,1
0.0009770193564040876,0.0023246083337225723,0.11272649394230029,0.23047133675869197,24,26,65,62,1
0.0008620903772533668,0.0017882258316398042,0.0987389971507424,0.18990166176170672,26,24,60,62,1
0.0008594719673667415,0.001841373616913325,0.09551645796966463,0.19512225849726952,24,20,67,61,1
0.0008416219820312362,0.0017020745380559694,0.09051802981602856,0.1773784276817818,20,26,68,65,1
0.0008154281660931324,0.0016861685384344073,0.0826424841506204,0.16890281623422002,20,16,64,59,1
0.0009358663453290461,0.0020562968593684605,0.08954193176067936,0.204723315482203,18,18,69,57,1
0.0009268206819112758,0.0021836621662822634,0.08756634924537493,0.20639220749243303,22,24,64,54,1
0.000819534675274472,0.002257753883471291,0.08349277582468173,0.20788627987174724,22,22,71,52,1
0.0008593266753198021,0.002265664137695725,0.08286918546035864,0.20891489175128208,30,18,72,51,1
0.0007163486672862314,0.0025259010929539138,0.07674724718368613,0.20015729164837187,22,14,73,59,1
0.000841363030443503,0.002667436680944413,0.08372480641500298,0.22250247424713668,26,20,71,56,1
0.0009031309414056738,0.00238943585853287,0.08652414130499841,0.22910040858057806,20,20,69,57,1
0.0009584754600909562,0.002379656095823952,0.08768773919002448,0.22166315975617146,32,24,69,55,1
0.0009314826050180352,0.0023093958431854977,0.08518059406590721,0.2138395906472256,24,20,69,55,1
0.0007975710295870128,0.0017287989849589416,0.07568313047474957,0.17332766785072537,16,24,71,62,1
0.0008495216196244682,0.0015817624926570248,0.07721947709769204,0.16396230590573405,20,36,64,67,1
0.0008411342719609852,0.001709579913032433,0.08272652752251863,0.17709742123854824,20,24,75,64,1
0.0008138814002948382,0.0019340823751367688,0.08213979309090952,0.18398533467302033,20,16,62,60,1
0.0007008575229354823,0.0018391157458340487,0.07257629129852484,0.16792305819879344,22,20,70,60,1
0.0008531705775937505,0.0019188629322221685,0.07869897550592074,0.1794591838475015,22,18,66,57,1
0.0007866379973541547,0.0017565744859755514,0.06968144795650234,0.16081750589280633,20,22,64,59,1
0.0008507157729123632,0.0015108566243314983,0.07375343699766103,0.16351865906817617,18,26,69,56,1
0.000825197446328422,0.0016801806711734017,0.07775954408008076,0.20483885325062165,22,28,63,57,1
0.0007504406444418874,0.0016527151353844486,0.07318732828168496,0.1996201852754769,26,28,66,57,1
0.0007150688370566624,0.0016670736583221954,0.07766481227131536,0.19939233598927977,32,26,61,57,1
0.0007975578699034037,0.0017050173277010563,0.08604966717750906,0.20034757978250006,28,26,64,60,1
0.0008226921330278486,0.0015072726997825926,0.08734239828356267,0.16793818141073708,34,26,68,56,1
0.0008078214466817357,0.0016115313540495026,0.09004280377543442,0.17602539718063206,26,24,78,59,1
0.0008736638482967164,0.0015156004435558912,0.09793232838479295,0.17161899367273586,28,24,68,69,1
0.00097834096245306,0.0010225432273515424,0.16140823154186032,0.13663325765823772,36,32,89,77,2
0.00102542211367931,0.0011816837830356944,0.17063463939979565,0.1455230398198909,40,22,88,75,2
0.0011415487274600885,0.0012540262935200855,0.1867663326379808,0.15283517535417931,38,28,81,77,2
0.0011178379374461927,0.0011222803605753942,0.18398916741655091,0.13952086821757012,34,32,79,83,2
0.0011545028062689535,0.001160772072783637,0.18773393861853965,0.14431693913553645,40,29,81,81,2
0.0011856636533595908,0.0010339752941768284,0.1915269648546871,0.13427010623527041,36,24,84,76,2
0.00108693633011344,0.0010574231990195834,0.17462400025061997,0.13777142774810644,32,32,84,76,2
0.0010876209903110164,0.001075853058043016,0.16961396470461662,0.14347293429951655,26,38,82,78,2
0.001126889988298867,0.001134151237408045,0.16233772773618363,0.1416667663863455,26,36,80,77,2
0.0015052464811860066,0.001883628888506168,0.2181632716769568,0.19612641204018386,24,18,76,79,2
0.0021029986543826566,0.002416462506583426,0.27247367770749625,0.23357739155080512,28,16,67,68,2
0.002343256989664285,0.002771810513505091,0.2769746800479193,0.26327206178108487,30,18,71,62,2
0.0024919756029870683,0.0028044046950770458,0.30409795715461113,0.27700605616777607,26,18,68,68,2
0.002332678609725659,0.0023903247441423576,0.2736880385753373,0.24476253011976115,22,20,73,58,2
0.001795317564411235,0.002129220283092266,0.23791678036851732,0.22591499025252423,36,24,81,61,2
0.001625069465507584,0.0018667101918979606,0.24077764765572635,0.21490034952669385,30,26,79,63,2
0.001357339457145637,0.001819990045141061,0.2217648265208515,0.20316180847789522,36,22,80,62,2
0.0012533405999526925,0.0016739609633562827,0.20203154080005392,0.20521749353530933,38,26,83,60,2
0.0014558579486695221,0.0015843237198593866,0.21255112527108166,0.20158214723607398,28,26,70,66,2
0.0014246704912438172,0.0014894731637058554,0.20224761128529775,0.19373408559507274,26,24,72,73,2
0.001565941684800561,0.0014361605575093123,0.18926449495901232,0.18730632962089844,30,30,74,75,2
0.0013655871027238207,0.0015061101952446268,0.18726532637401766,0.18623664236512194,34,22,75,71,2
0.0011098069097850393,0.00148281988869739,0.15732161402047576,0.1764338912814961,34,28,78,71,2
0.0011619892996513972,0.0014050389192149368,0.15490115865245532,0.16035226053685228,32,26,82,66,2
0.0012822671230417945,0.001342524863057063,0.14811893744389815,0.1560592426529381,26,20,77,65,2
0.0011748577419690165,0.0015673067861896315,0.15714481189030585,0.16096774204468883,32,26,77,62,2
0.0012429610208762056,0.0017000284982924677,0.1531513611090413,0.17180370668305162,22,26,72,56,2
0.0012209456508687094,0.0015855629319815776,0.15709039133279978,0.1685097007367733,26,26,65,60,2
0.001141591133623242,0.001800774704344302,0.15573822851357352,0.1738308320858091,30,20,71,63,2
0.0009670185867959704,0.0014783004834520057,0.1405999063360377,0.15440295531810022,30,16,75,66,2
0.00099678052613866,0.0013882869852849314,0.14828922155283203,0.1418797779072977,34,22,74,69,2
0.0009142556915503148,0.0013004573800207977,0.14537986418215745,0.13534666578734186,36,22,76,68,2
0.0010038175160422722,0.0014545320115083565,0.1359504586940947,0.1416364729055234,26,20,79,75,2
0.001014352314243069,0.0018738455722374545,0.14153146665722102,0.16039692283863158,28,16,78,66,2
0.0009353551639018744,0.0020566360224476676,0.13848999326291855,0.1660387540449493,28,16,77,66,2
0.0009421875436144002,0.0019644343212531367,0.13517924901793754,0.18040606086759609,28,22,81,61,2
0.0009968266474391038,0.0017593750487835153,0.14228099274777284,0.1721693552891089,36,14,78,62,2
0.0010680694001281936,0.0014605263462550472,0.14790646046826206,0.16827125494378672,38,22,77,68,2
0.0010887888883408508,0.001338227247619308,0.14780353337330354,0.1599257121763893,34,28,75,70,2
0.0010800709946614858,0.0014196265377280665,0.15025207658892373,0.15454583341363176,38,22,74,73,2
0.001102526827608318,0.0013871017452133825,0.1456635817350345,0.15640290938938392,38,28,82,75,2
0.0010065060288940181,0.0013883574574072555,0.14871338881286544,0.1481353456567266,40,28,84,70,2
0.0010407764996424062,0.0012394715720137266,0.15850121942091375,0.1423060352111402,42,32,82,73,2
0.0011205857496303265,0.0011848818053818398,0.17381842336353914,0.1451138955092593,48,30,76,79,2
0.0012153421685255409,0.0011871296606985398,0.17798651571912893,0.14908219316586266,34,30,75,77,2
0.0011269319529928492,0.0013339291559586299,0.16040538063459536,0.15211470313027117,32,24,75,68,2
0.0010344864906343223,0.0013836719849356,0.1478333074221666,0.1560601315368892,30,22,74,66,2
0.001103509943837315,0.0015074249512675726,0.13823899528048514,0.15515789019057202,30,20,78,72,2
0.001047210453629604,0.0014283023448478874,0.1401869345917697,0.15099702409354832,38,22,75,70,2
0.0018945935309133866,0.002925495178193932,0.151275348327849,0.34154431586262757,18,26,56,58,3
0.0018958659965950294,0.002993385175948461,0.16430910186250405,0.35599520324131556,22,26,51,58,3
0.0020426459211244277,0.0030787864886052375,0.17058925073206377,0.366391109594828,22,22,38,61,3
0.002042606920204859,0.0024351259325735663,0.17383695631995738,0.315569128588504,18,24,44,69,3
0.0021199021904762284,0.0028452522736937135,0.1719882206821529,0.33140746700214646,20,24,42,64,3
0.001825261803850833,0.0027734402019967295,0.1637667121533376,0.3123564266065053,18,22,45,63,3
0.0019471643236054054,0.002525806210628478,0.15697420552936553,0.31543962694431765,16,18,53,56,3
0.0017427675109418336,0.0031169997658860066,0.15427535920110497,0.33886886461356286,16,20,54,56,3
0.002323634572810061,0.0028362386119218973,0.1964682751690127,0.36623437169245204,20,22,54,58,3
0.0025470889208364374,0.004178507766608634,0.20942814178414146,0.4876341529467482,16,18,47,64,3
0.0027516165836181604,0.0049627648939291795,0.238930807240606,0.5951653230189597,14,22,51,63,3
0.0034544849981815447,0.005302685625560878,0.31678527914995835,0.6837063369054723,22,22,47,60,3
0.0030937520729809593,0.006101213001565564,0.27228859177832476,0.7068696269301832,16,20,49,53,3
0.0030736186321638783,0.005172123371294671,0.2654521758899534,0.6374680068200371,18,26,50,55,3
0.003153167429340665,0.004917740678532289,0.28691981390703203,0.6088439534249517,18,28,44,51,3
0.0024882874180767304,0.005264404299029806,0.22420454643779805,0.58088979428889,16,26,53,56,3
0.0027718548636270993,0.005313269320000033,0.25268492125281866,0.5702240643327393,18,24,47,56,3
0.0024751948756277058,0.004760672467919087,0.2421007446121565,0.5078885364675765,18,20,44,58,3
0.002168760100183745,0.004519726237779074,0.18722570044970563,0.505084972428883,18,24,53,61,3
0.0021032028468387478,0.004183252664012532,0.18801816294671683,0.5113715428311544,18,26,55,57,3
0.00176340309272831,0.004530200483389662,0.16984724877057367,0.5491488011192546,16,24,53,57,3
0.002177382148182186,0.004689671750251011,0.1898152068819375,0.5510903664232906,20,24,47,51,3
0.0022974812411119968,0.004912340197907284,0.1986186117593682,0.525466091247134,26,28,46,53,3
0.0023584304760477176,0.004372313824747843,0.1938641163909858,0.5010881999971842,24,24,47,57,3
0.001987498662163426,0.0036401545238275517,0.17695976452199208,0.44673732696417234,18,24,56,62,3
0.0018824690688349296,0.003423353760862806,0.17376610629833525,0.4328233355507953,18,24,60,66,3
0.0018627397523958513,0.003162011111197355,0.18034857710506666,0.42533275146242844,16,28,56,74,3
0.0017677074197601248,0.002863021147253695,0.17136824518571525,0.3986164141498001,18,22,60,77,3
0.0018583686057433671,0.0030397875829497496,0.16094543195143324,0.4044845951813948,14,26,67,77,3
0.001710645481831815,0.003124527025737936,0.15189789816019714,0.41346286218150374,16,28,62,71,3
0.0014761038662190948,0.0031790227063971228,0.1224827101591294,0.39822607453437936,16,22,63,71,3
0.0014349895189582611,0.003230771812863563,0.13116077320797226,0.41414542246260083,18,32,62,61,3
0.0019197017782333974,0.0029250844483919465,0.17259136755999996,0.3875622436077205,14,30,59,66,3
0.0026526158004730824,0.00290029922457349,0.22609689392471688,0.3790175617492272,16,36,46,68,3
0.0025243521481835697,0.0028448509397024035,0.22538479589344368,0.3621812932312218,12,30,53,58,3
0.0025726332918882206,0.0032058860768081248,0.22324090246825856,0.3658598153425126,8,28,52,59,3
0.002055028326510293,0.003186425433383588,0.19193764445816913,0.3634895659478827,24,24,51,60,3
0.0018625906514405945,0.00345799628500181,0.16584949601859814,0.35793693437532703,22,20,54,61,3
0.001837560138529405,0.0031177149465391775,0.1600942397057779,0.33424865357921685,20,22,55,60,3
0.0019656103382497637,0.002893593465086275,0.17468221253654787,0.31140050502351574,18,24,53,58,3
0.0017978949197807001,0.0025305920797732318,0.16221875058669602,0.2894550944847135,16,22,57,63,3
0.0018008523671848773,0.0022130268980567283,0.16797788420938978,0.27054166602954266,22,26,54,60,3
0.002382682065851378,0.0016866180771691601,0.19315099416521658,0.22644536620103992,18,30,50,70,3
0.00205422725575236,0.0019206304230083087,0.17696119758875598,0.23406827972127067,20,18,52,66,3
0.0021810757410553787,0.0022394916618304244,0.19322930989922746,0.23936436348098836,20,24,50,72,3
0.0021105999232414506,0.0021540602687584866,0.1860480147998521,0.23161768265860705,24,28,51,71,3
0.001961823743377418,0.0022318273537007814,0.1733399600156497,0.24738573156328478,26,24,59,67,3
0.0018829584160882029,0.002066852201800167,0.17531848489773894,0.23595301578884917,22,24,51,65,3
0.0018708599775742454,0.001987099601560024,0.1590078826719095,0.23030737898607914,18,24,51,58,3
0.0001712886441719218,0.0007675939721278796,0.014116579520992371,0.05593966364871381,20,13,54,58,4
0.00014873937125889122,0.0005668116933565073,0.011816831640168451,0.04138897752040259,22,20,54,46,4
0.00013345806739681882,0.000498201926375202,0.009888239080000916,0.03615704483935057,16,18,52,47,4
0.00012634594105797944,0.0005368430954604815,0.009101855403296728,0.03332980733172837,16,14,48,45,4
0.0001257552563346566,0.0005402693066139605,0.00873641303881029,0.03369063911639512,24,15,52,40,4
0.00013154890193004874,0.0005801201166504867,0.008744367689822206,0.03843564024871522,18,12,52,38,4
0.00013594221545121279,0.0005619813943129039,0.008919623759435362,0.03679010159502362,20,12,60,43,4
0.00013634585173071575,0.0005534425755150241,0.008912768408555968,0.03750248770497792,20,16,56,37,4
0.000134167624296513,0.0005567758303413535,0.009062431103055366,0.03631634147609736,24,14,48,33,4
0.00012987220712578482,0.000522837187958842,0.009094914530284196,0.03219690533254834,25,16,48,31,4
0.0001334102774815153,0.0005189676933401668,0.009195615387164657,0.03288495445697587,22,16,56,35,4
0.00013192497799435567,0.0005196453778663704,0.009393704053361873,0.033110589606497716,21,16,54,40,4
0.00013476236181685387,0.0005371997082706282,0.009365299689146137,0.03300073512479697,18,18,44,40,4
0.00013105343499234939,0.0004966600563227136,0.009137214207463837,0.03197493294147192,23,18,42,42,4
0.00013471816679655973,0.0004852120469412473,0.00901472886225817,0.030893131040540166,18,18,40,43,4
0.00014025458671552006,0.00046223761922325335,0.009172609301374873,0.029226242964699094,23,18,44,40,4
0.00014123145108448432,0.0004689525925132501,0.009281555732057321,0.030281646536676907,20,16,38,41,4
0.00013899442560499572,0.000458430528426058,0.00893154016688903,0.0291043522459083,23,18,46,36,4
0.00034850281612346817,0.0009230080939692546,0.02467023707758074,0.056530883447123786,12,12,42,30,4
0.000536327273230758,0.0010975616869914786,0.03638732941192405,0.07367359481622283,8,16,41,39,4
0.0005559747131828782,0.0011455068253253863,0.037561505003604403,0.0758423025802411,10,18,39,37,4
0.00042233127616524586,0.0008748751287398032,0.02935381118150778,0.06589796360733395,8,20,56,39,4
0.0003216850802490278,0.000606197543464692,0.021438400268988803,0.04856059381019056,6,18,61,39,4
0.0001774768203523776,0.000411670060031964,0.011363879362355335,0.02941683408589416,16,22,48,43,4
0.00016097173221055552,0.0004067552390776289,0.010411478045721064,0.028808114495078557,17,20,46,46,4
0.00015995169042413955,0.00041038336354537583,0.010111665898039315,0.028807458025627928,18,20,40,40,4
0.00016679758064357648,0.0003982673675016276,0.009730104140100912,0.028944903622580988,17,18,41,33,4
0.000168813086952611,0.0003898589582580725,0.009621547243729168,0.028988544765597448,22,20,40,34,4
0.00016315503233079657,0.0003774521565686758,0.009752841274990522,0.028485978755586963,23,18,38,36,4
0.0001644726570189718,0.00039119630638972806,0.009703915872262586,0.028233727526308844,16,18,41,33,4
0.00017455977005710385,0.00037545505521550287,0.009817549892005843,0.027136544071813463,17,16,44,35,4
0.0001707015104840227,0.0004054342130199969,0.00976000350084189,0.027663676937008316,18,23,45,34,4
0.0001667180233301915,0.000378815854297408,0.009689167717424238,0.026663058154249488,22,20,51,38,4
0.000163162574721842,0.0003616550219129766,0.009676571261990683,0.025693362971667928,18,21,43,42,4
0.0001677373689273122,0.0003499163206718903,0.009695934664825193,0.026277597963318824,18,16,45,37,4
0.0001661702311793564,0.000349464932931882,0.009576922920256456,0.025982994983498087,18,19,44,34,4
0.00016945566000981446,0.00034386292045705813,0.009533649347631679,0.025753438600966967,18,20,37,32,4
0.0001692535661821025,0.0003545355009036918,0.009651291711058677,0.0261215127968901,18,21,35,34,4
0.00016648803042317638,0.0003730930790949203,0.00978333425697097,0.026554548955172896,18,20,38,36,4
0.00017430634113522298,0.00036935349919502543,0.010299272808755488,0.02613349984757123,16,22,43,36,4
0.00017623345491996032,0.00037240925020045083,0.010091608685611337,0.026556264501740093,20,18,45,38,4
0.0001744961475267318,0.00036909275027879396,0.009950435203910058,0.027203210961823966,20,20,51,40,4
0.00017812661024955217,0.0003547407170566861,0.009626654596679517,0.025967570909394454,16,20,56,40,4
0.00017715547734045733,0.0003651678030460528,0.010091720538380465,0.027411035335205402,18,18,51,34,4
0.0001719710303686781,0.0003511502395058831,0.009617663118427384,0.026099765905944438,20,18,53,32,4
0.00017501763327500413,0.0003570497864123345,0.009381393136462907,0.025984531680017273,20,24,51,32,4
0.00017139255478391166,0.0003538844042114361,0.009671258252582046,0.025930059771132073,18,18,47,28,4
0.00016693419860177713,0.0003485511155222995,0.009691515716067491,0.025637837122070236,16,24,43,30,4
0.00016920724851787676,0.00035538659997736295,0.009927544730308482,0.025795147788703048,18,22,41,38,4
0.0011120005417350276,0.004449230456800365,0.08751814945226706,0.41647791712532234,20,22,46,59,0
0.0010100979336566483,0.004435792059337983,0.08435254976227695,0.4256685000641208,16,18,49,52,0
0.0008760109113661299,0.003801050432599679,0.07580577156639114,0.38957637710626614,20,22,53,60,0
0.000855160363773234,0.0038694568038046334,0.07665133552125084,0.39468939484899646,20,22,57,56,0
0.0008290871074539203,0.0041255182779725815,0.08048336171538102,0.4132712957236617,20,20,52,56,0
0.0007576030953555042,0.003705138068035901,0.07461443379309791,0.3791335099068617,26,20,54,60,0
0.0006307954632507715,0.0037566756737999036,0.07074682523618236,0.39188665815905976,24,24,56,59,0
0.0005768016756879725,0.0035019007398048385,0.06542339878744442,0.3555497711668337,28,22,58,58,0
0.0005244736129750577,0.0033188988511523264,0.06014199119283821,0.3784197269210572,28,24,65,54,0
0.0005754753421602223,0.002906044474667699,0.06294048862914495,0.3516591973770491,26,24,61,61,0
0.0006379323351955778,0.003079820610170875,0.06535582530992273,0.3495410148413782,28,24,60,59,0
0.0007668533990114124,0.00318795019176677,0.07010291736444466,0.3419376493510226,18,20,51,63,0
0.0007759567698130674,0.0030164921602657403,0.07667600488016413,0.31395673787767103,20,24,55,60,0
0.0008165711535928965,0.0030066053388038403,0.07698833924651428,0.3062212959903089,20,28,60,58,0
0.000880445080662676,0.0033302629827847703,0.08038674915672675,0.30011943289128556,26,24,60,61,0
0.0007818850174784818,0.0028997894017254557,0.07525264758932666,0.2858403340909488,20,24,64,62,0
0.0007198747883630057,0.0024589920896225846,0.0679879396989247,0.2609470083094892,26,24,66,63,0
0.0006567234815863187,0.002446368338132896,0.06811391332017841,0.2676231559961776,24,24,70,62,0
0.0005632030914149301,0.002468294920013236,0.061986599161832405,0.2681880744439211,24,22,72,56,0
0.0005095881645454724,0.0024887069194729776,0.06076600761698811,0.26731745151274683,28,22,75,55,0
0.0005721318149536675,0.002805802109407707,0.0623794253712945,0.24868447031959354,26,22,70,51,0
0.0005108603105705921,0.0026853973614988196,0.0571991945801004,0.23820668405154447,20,18,65,58,0
0.000615683466185188,0.0027498235236828234,0.059489667386830834,0.2317390591573612,20,16,58,55,0
0.0006520932401072237,0.0027999292493178316,0.06376209671219438,0.2516071819078791,18,20,57,59,0
0.0017740729901312804,0.003670156103537846,0.16936250421403842,0.38438467128889614,16,22,53,53,1
0.001904865730981879,0.003457922732516569,0.173389351814154,0.361283432272021,18,22,53,55,1
0.001732575444656696,0.0031088105515084553,0.16421564564759047,0.3330726033658829,16,20,63,57,1
0.001403543196576069,0.002338663694798676,0.14101712657648421,0.2632721332528133,20,24,61,71,1
0.0012690748627917584,0.002264455894957519,0.13958555435244102,0.2724186362471723,20,26,61,68,1
0.0012712935907584306,0.002577371069782119,0.1380381013882831,0.27640282836678187,28,28,56,62,1
0.0012952160215875359,0.0026952285305971947,0.139583398670019,0.2927366550250446,24,26,48,58,1
0.0014654757758073133,0.002677855939495891,0.13993209810174215,0.29878738322689524,22,28,46,61,1
0.0017400648577684124,0.0030562567222384134,0.14261594026299734,0.28909864236875865,18,22,50,57,1
0.0015781837975062012,0.002895245947019654,0.13985938938947506,0.3002702730053285,22,20,53,58,1
0.0014868078547484863,0.002699181947970743,0.1325028708920593,0.30298210531827463,20,18,64,62,1
0.001682921062252251,0.002694761638606555,0.1549208400596358,0.28524634811176175,18,20,51,68,1
0.0014809997769672878,0.002604472669496816,0.15151051305224866,0.29277734111657344,18,22,56,66,1
0.0014874962237058332,0.002761345554478768,0.14744265358289943,0.28546721499413297,18,22,52,61,1
0.0015834868121131218,0.0030621439707976504,0.15485319939758896,0.27986352653072816,20,22,51,53,1
0.0011370554320324106,0.0033521104954416085,0.12805074690304258,0.29199555831844515,24,20,62,46,1
0.001080774902999658,0.0031695433531196953,0.1161036599645508,0.2848539505006159,22,20,66,53,1
0.0011915587176907676,0.0029374940491016977,0.1270575641043971,0.27897620708752274,22,18,71,57,1
0.0012791412194700274,0.002919028718280102,0.1307868821513239,0.2763019183523158,22,26,64,60,1
0.0015136059979473442,0.0028645706629837485,0.13912103926254707,0.27531883602801266,22,26,62,57,1
0.0015236095464521227,0.0028208844764130185,0.1448778857497172,0.2715567960485807,20,27,57,54,1
0.0013451824443545424,0.002897333486119987,0.13692173001837288,0.29892700428343916,27,26,60,54,1
0.0014577401658659233,0.002980508783209684,0.13900710092994467,0.3187672260962209,20,28,60,52,1
0.001542775393768512,0.003200680253585793,0.1393985463005894,0.3271641524109891,24,22,59,53,1
0.0011255158080963955,0.001953978859236331,0.1832143852524694,0.20162999273775523,38,18,74,61,2
0.001171491886084831,0.001816258257428555,0.19301214468814115,0.21414539464173704,42,24,75,63,2
0.0012665398539353384,0.0017808199893747567,0.20875003716001686,0.214063154346759,48,22,74,70,2
0.0013197759623593374,0.0017568304904748088,0.21409862012825,0.2077821299186605,38,22,80,71,2
0.0014276193793737865,0.0016755837458546552,0.22697591663316544,0.1951121794308621,44,30,85,69,2
0.0014265041591048034,0.0016305552854758978,0.24431732351667482,0.18936797590013604,42,34,86,77,2
0.0014930881061762003,0.0016986646015684074,0.2557902283668782,0.18661878680341612,44,28,91,68,2
0.0013427453332585904,0.0015081038891441557,0.2260341844109293,0.16860299465508288,38,36,88,72,2
0.0012533742736293848,0.0015277077632436737,0.2103038528913604,0.162462460260187,34,28,84,72,2
0.0010830684428613203,0.0015090661504463113,0.1784537306923182,0.1573831127296021,36,24,89,69,2
0.0010060020578922006,0.0014944311268710014,0.15964265022545082,0.15459382997248275,38,20,81,69,2
0.000958696226031316,0.0014293670816843173,0.1530190952670024,0.14502428240910298,36,28,81,67,2
0.0009746939609282441,0.0013733251481783263,0.15696778515498527,0.14362224849882596,36,24,85,77,2
0.0010267841130731383,0.0013523523406180687,0.16105893101660929,0.13414902663838804,34,24,80,72,2
0.0011269191343337536,0.0014247300503889735,0.16406189486859304,0.14658312088035547,32,30,77,70,2
0.001102465907946601,0.0014492019437180891,0.17819736687045787,0.14865565833989508,42,22,83,74,2
0.0011007478120072993,0.0015323448489208292,0.16913619940066518,0.15163116413872446,32,24,82,63,2
0.0011011032569896659,0.0014705183442249039,0.16985591009220558,0.1573206521943037,30,20,85,60,2
0.0012264366722940883,0.001378165143460872,0.17200014249307582,0.14516940555824795,26,16,83,70,2
0.00108167362820192,0.0014010174826356648,0.16289906258406905,0.15104694564113139,28,14,86,63,2
0.001220236192816862,0.0014867325021744044,0.1908894373784411,0.16324867488301353,36,20,87,62,2
0.0011232434658284215,0.0013425550777619961,0.17965450351423592,0.1516194621209022,40,32,86,75,2
0.0011507338031773071,0.001161032149364334,0.16780199437043455,0.14881796476283266,30,32,80,71,2
0.0011230338635678837,0.0011621808359032315,0.1760091310913777,0.14323492858294942,36,32,78,73,2
0.002855995283670859,0.007115557147397924,0.2823301888535964,0.739455826158281,22,18,52,49,3
0.0025904901708874535,0.005809564009144532,0.2657940655989846,0.6635475568118157,26,24,45,49,3
0.002562399570443301,0.005320324387428859,0.25196651732840386,0.6169023549218965,20,26,49,55,3
0.002748636920387829,0.004257807359199414,0.25706685185858297,0.547719618749339,18,30,46,60,3
0.002710103484869641,0.0037407329733958627,0.24837093727985068,0.47776753888895684,22,28,49,61,3
0.00215788642614056,0.0037037109067120538,0.20374670809331155,0.43608603078608543,22,24,51,64,3
0.0018645903902339285,0.003395235513558932,0.1982558646299403,0.4051273862744132,24,22,50,71,3
0.001951555095865607,0.002642931142967109,0.19569311543188134,0.3556566942377803,22,34,52,77,3
0.001955060263679795,0.002730190219589427,0.2059993491480356,0.34364330845383495,22,20,45,72,3
0.0022269014389610944,0.0028799833003059095,0.22289706103831258,0.34826189107607414,22,32,42,69,3
0.0019921981198039555,0.0031513371523418554,0.19078530916400457,0.3447844825955116,20,24,45,69,3
0.002031946030129386,0.0034159369601361434,0.19440379245528855,0.34682269964176315,20,28,46,69,3
0.002180888811856619,0.003709244365042602,0.1911701124810113,0.4030842359102863,16,28,49,67,3
0.002211357789518225,0.003613988002892879,0.19806187818288037,0.36246586348569565,16,26,51,65,3
0.0021806600181982294,0.003299395162187714,0.2080895118789823,0.37181901940031503,16,24,51,66,3
0.0023209219630189863,0.0032104864263184847,0.198811001541471,0.37315140821306003,18,24,56,62,3
0.0018488680248367256,0.0029026672715675344,0.18328930665983498,0.3455398930111975,21,18,56,65,3
0.002034882147384523,0.0031303095168750874,0.1894949082450598,0.36045011780491015,14,20,51,65,3
0.0018748021838406472,0.002717799831095523,0.17443716556762032,0.327145707044979,16,24,52,71,3
0.002134856317817823,0.0027785894473268203,0.17855528807707766,0.3236149299023055,16,20,52,76,3
0.0019156198830936678,0.0026926804196261366,0.1667979685197167,0.2984018245212105,20,22,54,73,3
0.002002875885799747,0.0031141946607936366,0.1581122705997662,0.31516570824929124,16,20,53,66,3
0.0020040303356145457,0.0030432741118531603,0.16404042528022683,0.3304379435210229,16,26,55,58,3
0.001905723162517428,0.0029865215596864146,0.15129772025774132,0.3366440307490289,16,28,51,56,3
0.00016082613627884827,0.0005823067221877719,0.012715970809834177,0.03561999813872573,16,20,54,34,4
0.0001762142209748389,0.0005884103961760388,0.013524602062271891,0.03547234746236241,24,17,54,34,4
0.00017659560206106348,0.0005819430576529152,0.012986399857463598,0.035473849180464506,16,18,52,36,4
0.0001729502935740105,0.000553355254542508,0.012464512596467444,0.03331251876683436,20,17,52,36,4
0.0001749481318580061,0.0005381761720620296,0.0125531851396469,0.03345612417500985,16,20,48,36,4
0.00016488822708904814,0.0005651473631981031,0.011812266056474148,0.03378218455583031,22,18,44,36,4
0.00017936860257014608,0.000560064583151186,0.012113580663110482,0.033862714418280065,14,18,46,34,4
0.00016727902335031842,0.000564575102500712,0.012627691606043377,0.03365150400160576,16,18,40,30,4
0.00015599468650590335,0.0005529369215923899,0.01166128800165416,0.03409731034572923,16,18,52,32,4
0.0001659420279196221,0.0005665390669940758,0.012360087682640067,0.03437773393676369,26,16,57,30,4
0.00027038402076785687,0.000715162792875733,0.02252781738306196,0.04755343524779762,20,20,49,28,4
0.0003329815769144289,0.0009328310354893019,0.026541015149084614,0.07245500992975426,20,22,41,33,4
0.0005293853632520203,0.001304104389551642,0.04516534800556653,0.10641764098383423,18,22,54,45,4
0.000510384751613586,0.0014220186806124446,0.049519721860148774,0.11383066370831192,18,18,69,50,4
0.00047667191790568784,0.0013085895064754308,0.04668387344525822,0.10993216456500654,22,20,76,55,4
0.00032012099686256533,0.001280979497511073,0.04242787584623288,0.11795829522581056,34,20,76,46,4
0.0002912996692142282,0.0012400754008961997,0.03477956704843944,0.10240442096547105,32,20,72,52,4
0.00032268235674550084,0.0012712732117949196,0.03179917724616577,0.10571217486091666,22,18,60,56,4
0.00031454642494075974,0.001260027617902364,0.029198937337593062,0.10647194569099679,26,23,56,50,4
0.00030160383811365823,0.0010613719028184387,0.02548272778868198,0.08317126561945437,20,22,57,52,4
0.00024401378003434274,0.0010002839871839878,0.02172031637057785,0.08387739441500996,24,15,58,48,4
0.0002219362959109277,0.0010139150689929422,0.019672760755548198,0.08374282991210526,28,16,50,44,4
0.00021121781173877468,0.0008616327213014804,0.018475392329339785,0.07260755388634493,28,15,53,51,4
0.00020497592797137068,0.000854293698452256,0.0171521398164026,0.06706635907051955,16,14,48,50,4
