f1ch1,f1ch2,f2ch1,f2ch2,f3ch1,f3ch2,f4ch1,f4ch2,Category
0.0002608794214698469,0.0015076298943417193,0.0335047664534125,0.1905752858820071,26,22,67,60,0
0.00024203071660055118,0.0019581758648483144,0.03123365451704777,0.2161313788720107,28,20,67,58,0
0.00045383789236647527,0.0019250747044662572,0.05113813113249876,0.2115564201160166,8,16,62,59,0
0.0007115897724408912,0.0021398464164517324,0.0801420970667502,0.24111405905163874,6,18,67,52,0
0.0007838488383214942,0.0025027080687103826,0.08915594895158185,0.2784754960282691,8,20,73,50,0
0.0009864827154280422,0.0026498195031834414,0.11560971956071853,0.30015040264250653,12,24,72,50,0
0.0011616519847959337,0.0038630240498740247,0.14327182505547376,0.3997282338805443,16,18,74,56,0
0.0016505731419083013,0.0045634699794557055,0.21262958015450126,0.4992608112405441,16,20,66,55,0
0.0018949079649732317,0.005902589037829087,0.24477755456313494,0.650047242417543,20,24,66,53,0
0.002523255586791147,0.006836685058425111,0.3167995382492885,0.7622627314483367,18,28,61,53,0
0.0028399407815482025,0.006609106040187962,0.3352629829576886,0.7617740006372656,18,26,62,58,0
0.003101977654361824,0.007420122548803789,0.34855001645380806,0.8844258196449645,22,28,63,58,0
0.003005845445533239,0.0069995896537265335,0.36723149868605276,0.8634097535174428,20,26,70,58,0
0.003064432685511643,0.007151986677449317,0.39699985715562497,0.8823473835895811,20,22,64,59,0
0.003036122515529151,0.007557200513389226,0.41283690578919285,0.9455829623487518,20,20,71,57,0
0.00260133930050651,0.007571837400775796,0.3541925466832231,0.9332453373696381,22,18,66,55,0
0.0028459379850160798,0.0068546174148148955,0.41041168832174163,0.8834252871483155,22,24,65,55,0
0.0034687350535373297,0.006643861650381364,0.4451600766943272,0.8284833627757827,18,24,68,56,0
0.0035450025583814056,0.005625743658518453,0.4347095499895296,0.7284931798116139,18,30,63,61,0
0.0034386169030457053,0.005175444360542274,0.46810750508869425,0.6197454879389116,22,28,74,60,0
0.003291809228059562,0.0050038644734162275,0.4533830461100331,0.5771263916344923,20,24,75,60,0
0.002664631617532103,0.004493885274813823,0.4003824212122533,0.5109938098656157,28,26,76,62,0
0.003089871470047435,0.005010545540303807,0.4366457994255764,0.5857349220147131,26,22,73,64,0
0.003106015023924259,0.004482164616259927,0.43167329433213975,0.6023068939263808,32,18,71,70,0
0.002888627863652311,0.004876776652342857,0.396247138343724,0.673738851032135,26,26,77,65,0
0.002685007685742844,0.005329273282999788,0.39409128074167604,0.6851383166467441,26,24,80,65,0
0.002336199119937543,0.0053339072402053414,0.3673222381410836,0.6559813012073763,28,28,78,69,0
0.002218018254212264,0.005267050172003677,0.3622909242178144,0.6201434693036928,26,26,78,67,0
0.0021483489289112604,0.0050565176973666305,0.3429997316634068,0.6098689522688351,30,22,75,68,0
0.002273308387555843,0.004758584287760777,0.34045194113643523,0.6121463199222096,26,22,73,60,0
0.0020038154340839163,0.004538400410808769,0.31736924467622457,0.6031530066199391,26,22,73,62,0
0.002022344481121243,0.004405672800842465,0.3147293172730058,0.6216022926953286,30,24,73,61,0
0.002213260860660003,0.005179841072730297,0.33596847852588113,0.6708639382891217,28,28,70,62,0
0.0021921841137572586,0.00583978429352017,0.3032803781602188,0.694770032260361,24,22,76,62,0
0.002060559601853655,0.0057485632191284506,0.30280263086808734,0.6987538656940327,24,24,79,63,0
0.002192056844875986,0.006806402133079925,0.30132054722310925,0.7819645302105025,26,20,69,63,0
0.002404660839481226,0.0062473932212320695,0.36661550116584973,0.700792029302493,26,20,73,65,0
0.003252806118011856,0.006188973992187099,0.45945740139631425,0.7346299961883114,22,22,70,69,0
0.003468495257897554,0.00687781718109835,0.5100380720380311,0.7657943747320103,24,24,71,66,0
0.003048844013056087,0.005356991830138796,0.4374821358159885,0.6084617068203483,18,22,67,61,0
0.002287258610141677,0.004146752953633234,0.31044514810918195,0.4552069376324972,14,16,59,50,0
0.0010697817111552039,0.0026409279187615594,0.13868164478520045,0.27016943718043307,10,10,58,61,0
0.00017110050741972395,0.000708038369099638,0.02153592150115164,0.05601110872701524,24,24,68,42,0
0.00027033422416230537,0.0007146623844276627,0.03198343338366437,0.05743030048420499,14,18,64,54,0
0.00025269280335638093,0.0008265968746099038,0.03043376263595025,0.07758186718181573,22,20,65,48,0
0.0003290737774625939,0.001029020390692918,0.04183233431585116,0.09812515094577128,20,18,64,56,0
0.0003248956430445935,0.000999868423191041,0.04363495432950437,0.10225540881945964,20,24,69,51,0
0.0002744813314339978,0.0011483834471808284,0.03731273793807379,0.11961505099895064,24,22,66,52,0
0.007562262744002829,0.004719021224075029,0.9106587122796771,0.5091101240475477,22,18,65,59,1
0.0064008121939342,0.005074076884607943,0.8658350589070214,0.5512371416673059,26,24,74,63,1
0.005990688879920911,0.004755620682468741,0.9029530669646295,0.534587010638692,28,24,74,64,1
0.006189942641605308,0.005469068809351568,0.8732550998459226,0.5493384229447884,24,22,79,63,1
0.006567265410931281,0.00498871299251499,0.8968879618631602,0.566440721643628,28,30,69,58,1
0.007306883316610394,0.005048616169822684,0.9652424229511196,0.5729336725417628,26,28,68,53,1
0.007544241900552862,0.005465745739641938,0.9685674923230793,0.5566318406790148,22,20,63,57,1
0.008189217172327654,0.005039816410432591,1.1665176661905126,0.5528493706306704,24,22,63,62,1
0.007804112716586164,0.004015257884694081,1.1561373138494455,0.4963769706028716,22,24,64,63,1
0.007019349608399217,0.004359585910186159,1.0723675420795744,0.48436610157635945,26,25,62,61,1
0.007203095139426212,0.003786102757820099,1.1061568154779435,0.47778268188376916,26,24,62,58,1
0.006538053872642301,0.003700949961469583,0.9530781714749192,0.43894525408309143,26,24,66,58,1
0.006669016603143606,0.0038623122583241387,0.9824619728098997,0.43707471166738876,26,24,70,56,1
0.007161298043574892,0.004312669044115733,1.0730518851813775,0.48762641961465275,30,30,66,54,1
0.007974829569849974,0.004852773056504779,1.1246848240646765,0.5390541044435316,30,24,61,51,1
0.008329869898616836,0.004421970352937409,1.1805895817901435,0.5564802666091229,30,26,64,52,1
0.008038890881409506,0.00479360351650775,1.2438222166100539,0.5660204569430737,26,20,66,57,1
0.007900192535664147,0.004772671846349242,1.2740780643126053,0.5809044817956963,26,21,68,58,1
0.007539936281754655,0.004312694440016631,1.2054610689481844,0.5439213792546298,26,22,72,64,1
0.007234947680598708,0.004912737753782125,1.1511539177850343,0.543864863387715,28,24,79,56,1
0.006191129093805104,0.005346176858728157,1.0586763016182803,0.5823197431528854,36,18,78,62,1
0.005473769024127841,0.0049518164254836764,0.9396348551038268,0.521780125783372,40,28,76,61,1
0.0052463861841571405,0.005342873156950222,0.8675038364880654,0.601020099843644,34,32,75,58,1
0.005696015586612114,0.005691427670051794,0.875605391094054,0.6210979216010019,34,28,71,58,1
0.0063352178474437295,0.005276077537433932,0.8939528318751447,0.6113908988891008,28,24,70,57,1
0.006123613570903162,0.005364580175510559,0.9483434336735127,0.6501731092386088,26,24,71,52,1
0.0067687363240008765,0.004881110095289872,1.0611475487662083,0.5578021242627322,28,22,67,55,1
0.00701263373217225,0.004562213191296508,1.1033858764452893,0.5255844905739188,28,26,63,59,1
0.006338746768758959,0.004037199277700687,0.9953415753774906,0.5054934521771917,30,26,73,63,1
0.006971705857247387,0.0035291967766370898,0.995644823347402,0.42658505115788575,30,28,70,67,1
0.0067457410204816385,0.0035301912969028897,0.947970847514855,0.42863350269683265,32,30,71,70,1
0.005980912934249909,0.004022749855122038,0.8703448037412578,0.4402270828505131,34,24,72,66,1
0.005739380159633129,0.0036615787764180106,0.9207704045039566,0.4168620089341171,36,30,66,63,1
0.005289541115806005,0.003768459837449642,0.897015701349385,0.4258288512401156,36,26,74,65,1
0.00494218836227573,0.004001410414052006,0.8589966346558826,0.4459900025600716,30,26,77,58,1
0.0057558812991759965,0.003779316511438482,1.0003941263571277,0.4349176165493198,32,26,69,56,1
0.0060986006144846125,0.0037412994669140547,0.9792989865979737,0.43759754098577447,26,22,67,61,1
0.006479854433164602,0.0040111852544279635,1.0451169965325835,0.4768241920401928,32,22,71,58,1
0.006673659741409596,0.003912999064161853,1.027698996063061,0.4524045462130457,24,20,69,61,1
0.005185252458447183,0.003973383075428271,0.7620001103215376,0.4236197731745904,24,22,69,59,1
0.00418257814162366,0.0035769979908662343,0.5889104181620712,0.3591319249690998,20,22,71,55,1
0.004420933830921131,0.0029349670536568,0.5188536569621599,0.2643420016748124,12,18,59,53,1
0.004382581740633591,0.0031739782270169613,0.513185104564264,0.26500751394629785,18,12,57,58,1
0.005659867749809129,0.003996418196899146,0.7240280704692714,0.35016054528517154,22,17,55,56,1
0.007740143796856593,0.0044482848905205005,0.963412999352348,0.4552909114411338,22,14,62,57,1
0.007909181831092613,0.004934665339500379,0.9415687638891477,0.5195372002374222,20,16,63,61,1
0.007123383293867739,0.004803707775205762,0.9510137344164702,0.5023520111050006,22,20,61,57,1
0.007948727605156221,0.004299421774876625,1.0044950400369586,0.4608983923725683,24,22,63,63,1
0.004544183063932466,0.001264778529143071,0.6194746371874922,0.10693075288322475,24,10,63,60,2
0.003886933656282147,0.0011499429606636746,0.540897543541478,0.10806013329216776,22,20,73,65,2
0.003573337087987109,0.001322399470112978,0.48319091462785657,0.12093008386533202,24,22,72,68,2
0.0037860957826449815,0.001231054287578466,0.5360744630499991,0.11566863456404022,30,19,70,65,2
0.003088731637561866,0.0011735132209718627,0.4439957579405353,0.11127794356151013,28,26,66,66,2
0.0034725240333860208,0.0011563784144246335,0.47004756752358845,0.09719373740835649,22,22,63,61,2
0.002883972224230454,0.0009366959589751674,0.42370874063134,0.08174983007234002,22,20,71,49,2
0.0026821955635257105,0.0009152481067017329,0.3854427057456178,0.07333920690153693,22,26,70,47,2
0.0027308913497765346,0.0008220384768057002,0.3911463501593068,0.06575269227628527,28,24,68,48,2
0.0027677716094547523,0.0008627353858999675,0.4458388439453136,0.06536858379727896,28,20,77,50,2
0.003334978162981136,0.0008934295667156841,0.5368766466547312,0.06939584239252368,28,18,72,50,2
0.0036396098424688206,0.0008944945716469689,0.6643598500244372,0.07362524204382191,30,22,73,62,2
0.00409758551472872,0.0009310638368383542,0.7284274149455164,0.08375785455164743,34,24,72,71,2
0.005103469295975585,0.0009777613611504144,0.8643429228450333,0.0902696408602929,32,22,67,73,2
0.005562319548250133,0.0009802172141071394,0.9281122551554283,0.0987658901769917,34,28,67,70,2
0.006426193994637658,0.000974289552342145,1.0199221835412742,0.10644259498000548,30,32,67,71,2
0.0063708677333633055,0.0010292367510903306,1.0511134035040808,0.11080026894010829,32,24,70,72,2
0.007121009871109086,0.001101731007574674,1.2217449801157638,0.1270143571053114,32,31,73,75,2
0.0063317072206823845,0.0010740203959538777,1.1207154076479848,0.12131385222919787,32,32,74,69,2
0.005250043205694841,0.001069565212584962,0.9429694420023341,0.11724206770224391,34,27,78,70,2
0.005164349916871449,0.0010629640431418074,0.8847231194128039,0.11373192325196085,34,26,70,72,2
0.004139096045064915,0.0010027786161501346,0.6766639864141226,0.10256615244413897,28,24,69,71,2
0.004869673279087028,0.0009968752834676065,0.7675834555916411,0.10688166700266313,28,28,74,75,2
0.004685043652616043,0.0011120070892405532,0.8223343861667516,0.11256169471451329,34,29,74,72,2
0.005439035568312775,0.000980008949108022,0.9400574099410194,0.11933266881267258,36,34,79,73,2
0.00523729982465444,0.0010203324253482689,0.9253098183635475,0.1135331429474681,36,27,80,74,2
0.0055209333208086145,0.0009866438414666064,0.9460401656917535,0.10826591898633457,34,24,81,74,2
0.005725743968474385,0.0009684730315270036,1.0022818508239864,0.11596631154866216,36,33,79,80,2
0.006901552517943762,0.0010819207835745524,1.1115338356234248,0.11774016947722984,34,28,80,76,2
0.007775267318008678,0.0010322271859330957,1.2537168910052925,0.12976194315120934,32,27,79,67,2
0.008108490065399803,0.000996703084814948,1.3365545032925439,0.13412854755632692,40,24,80,69,2
0.008252725396214683,0.0010399461179379681,1.3865942232474122,0.13775185078186,34,31,78,67,2
0.007896961424133698,0.001104737269363459,1.3492835056925674,0.1356250584419496,36,34,82,72,2
0.007580865017250523,0.0010024925245014458,1.2830051172608674,0.13838590956865093,34,41,81,69,2
0.006630426924219454,0.0010814649229282582,1.1738408771964344,0.13814621019795487,32,30,81,65,2
0.006221920281066318,0.0009588353779930077,1.1687348258377348,0.13233320570220275,40,33,82,69,2
0.006039052126829581,0.0009566840180085348,1.0930325516621833,0.12190815280409015,42,28,76,73,2
0.006179079279249349,0.0009524266847429589,1.1374412809457013,0.12768269506547691,42,33,82,77,2
0.006527085647197047,0.0009884662522634839,1.13854853124828,0.1186967910158675,42,32,79,79,2
0.004951954882062179,0.0020653703551844313,0.8418907827413948,0.15986604562814258,28,11,89,61,2
0.003737712984429835,0.002082234212618033,0.5961955593861661,0.14489245332921996,24,8,66,55,2
0.0017018739781634207,0.0023838355639076263,0.23643241522107547,0.16776104415962334,12,15,52,38,2
0.0001790121285273729,0.0018664165840103697,0.01813169012697237,0.14638834988612645,26,12,56,34,2
0.00016091461171829544,0.0025955791774865413,0.014994007815783464,0.2319652861706495,25,14,53,36,2
0.00028034587141970185,0.003797161754152573,0.0326310349456607,0.3742569200467365,12,22,59,39,2
0.0003244474263474953,0.004383890823753216,0.04183271826491061,0.4996986523717653,18,22,66,43,2
0.0006798463357657351,0.005302400405083159,0.07802650892164237,0.623883647031012,10,26,66,50,2
0.0007000063344063559,0.006809537560531446,0.08878450071897738,0.9000611248572045,18,30,68,50,2
0.0007073085604949235,0.00870880621718279,0.1300955279523561,1.5495748897368593,42,40,75,77,3
0.0006784264628322169,0.008970111229339089,0.12678602537890707,1.5928001080928702,46,34,79,75,3
0.000751661645973203,0.009676712328315053,0.11704209147333187,1.5323211593630288,34,30,79,73,3
0.0006488229895115866,0.010073773256313217,0.12189610073220958,1.6294793411915538,36,34,74,66,3
0.0007028713120130821,0.009269282899462822,0.13343551652301186,1.4538461333324955,38,32,75,69,3
0.0007403740638565699,0.008797868714078828,0.13912989442961424,1.374665994464326,40,30,73,68,3
0.0007255282861983492,0.008066071722939279,0.12714751556589748,1.3462030917541288,36,36,80,74,3
0.0006959163451056815,0.008165429714054533,0.12233654815704317,1.3805760769267905,36,36,79,73,3
0.000600969838279034,0.008434802763530024,0.11465122631844392,1.4153805564718325,36,36,87,73,3
0.0005623649474815428,0.008715084989765677,0.10679915101808785,1.4907583608537025,40,42,84,71,3
0.0005797724338116568,0.009260873592434377,0.11221786356895126,1.5521280079546211,42,40,79,71,3
0.0005643172196812306,0.008476650705019309,0.10868860078911927,1.4107481192785185,46,34,80,70,3
0.0005763063046742204,0.007942872500963044,0.10778499034304385,1.3219955196021849,40,28,74,68,3
0.0005651955239179044,0.006960633090569355,0.10857203759402137,1.152146927972703,42,32,77,67,3
0.0005506470515969886,0.006868895690509727,0.10693738562065146,1.0311622500424424,40,26,84,67,3
0.0005740858917486158,0.007016855977950712,0.10880477261519578,1.0216250032315746,40,22,82,69,3
0.0005394746250529494,0.00710370260039033,0.10362448409367632,1.0755213960674939,34,28,86,73,3
0.0005646474059176225,0.008250233426464955,0.10980452898003396,1.1568323879937938,40,30,82,70,3
0.0005245733782763029,0.0081907538759678,0.10091666304036011,1.2933891277751455,36,26,78,69,3
0.000536041197005128,0.008347882584460252,0.10208829940889938,1.2332012903833032,36,32,79,65,3
0.0005252802711860923,0.00842983516803658,0.09614427934123453,1.1639262824725478,32,32,83,63,3
0.0004938096775403078,0.007649611887694398,0.08784541836469417,1.0110255607103877,34,34,83,71,3
0.00048491209166150656,0.006818446623278426,0.08587161663589872,0.8389494016785393,42,30,82,70,3
0.0004564364488769909,0.0064736835983429655,0.07848349437357999,0.8367948950224388,40,26,81,68,3
0.0004721383089399299,0.0053600657989648325,0.08466947461742966,0.7694902184895376,40,26,83,74,3
0.00048744826507803485,0.0054621641959472335,0.08081628808835775,0.7586700273127328,38,20,79,71,3
0.0005272822653514404,0.005652825884956928,0.08752683318824638,0.7323285628562394,36,22,78,71,3
0.0005053407405517466,0.005289176091301489,0.08886884281062987,0.6954728847049233,38,24,81,75,3
0.0005098516728403088,0.00532701620394698,0.09007290903557022,0.6754132160122536,38,26,86,71,3
0.0005019451194645508,0.005667903373061848,0.08897404747938857,0.7557147845408025,38,26,85,69,3
0.0005094246713219025,0.005948116279783037,0.09010207225958576,0.7648281474836832,28,22,84,66,3
0.0005551610929979904,0.006186418481007694,0.09439761054870284,0.8046137536612891,30,22,91,68,3
0.0005375308002221385,0.00656890805496113,0.0901021750676803,0.8973451745312828,24,26,82,66,3
0.0005547573374525164,0.006481208563368209,0.1005865847492825,0.8519606734054286,34,32,80,67,3
0.000508375530951589,0.006461325614585275,0.0965289702957072,0.9775593653250468,34,30,81,71,3
0.0005629914511811224,0.0079293349053243,0.09530691584214715,1.0724485345974322,34,24,80,69,3
0.0005690017810599357,0.009225260860059913,0.09490129898821317,1.1808056644495848,34,22,80,65,3
0.0005733907058424084,0.009711265871839844,0.09799863610530071,1.3884401376864468,34,26,73,69,3
0.0007262632734871591,0.011153345482320087,0.11256285988707906,1.458605783238332,30,22,73,57,3
0.0006028582785279142,0.00913622166608907,0.09066509535936612,1.1870330942417682,32,24,68,50,3
0.0005085495847026525,0.006726132998450841,0.07083035156609715,0.8435328232998243,26,14,56,40,3
0.0003809005623968171,0.0036634500592497266,0.04510401697068318,0.3966459100512239,14,10,59,29,3
0.00015212059761693914,0.001036853330104527,0.01273388123004662,0.07144118552269935,20,18,54,36,3
0.00015562382927778226,0.001387065924957267,0.015891413888051143,0.10746789521492403,27,15,58,51,3
0.00018209040127650715,0.0012768783434346646,0.02125355824004538,0.12705751183835223,30,20,69,54,3
0.000188905706282827,0.0015818991472999094,0.025951008808570222,0.16599230327710812,33,25,70,63,3
0.0002068417919124495,0.0024729784805744247,0.028793657608031802,0.25141598735100706,34,22,77,57,3
0.000271801128191153,0.004044309280167927,0.03318382085525745,0.4439751973838252,29,15,76,66,3
0.0006797762178678199,0.0018361002769857289,0.0822573397086931,0.2107431243755098,28,18,66,53,4
0.0005871067485329371,0.0013530731687414655,0.07441771622114655,0.15422555127383983,32,16,61,51,4
0.0006381873318749688,0.0013864663458559399,0.08327598719657801,0.1577674601010656,30,14,71,51,4
0.0005646791963525881,0.001047275667825595,0.07564278439778714,0.10793364228828017,24,16,73,54,4
0.0006112473094360069,0.0008677657731130318,0.0774760039177088,0.08696100723732815,20,24,69,58,4
0.0006151078932008443,0.0009923666863805567,0.07371831235829975,0.09240580042468771,16,20,62,50,4
0.0004094805143582491,0.0010204814480265514,0.04904890199228543,0.08574139995889946,18,22,69,42,4
0.0004902839854588552,0.0010260314282670388,0.05958150882219629,0.09202650064187545,18,16,70,44,4
0.00036571415305821904,0.0010580205349216248,0.04490723287664659,0.0988479177717838,26,20,73,43,4
0.00038989059970168214,0.0009217297525150183,0.04935550142541397,0.08110443616453371,20,20,72,48,4
0.00038986921502905776,0.0009545355194649773,0.05033918035751227,0.08690036086112488,22,18,68,48,4
0.00030700423250413947,0.0008904859370866751,0.03990426057746288,0.07583657482896977,22,16,73,49,4
0.0003548956302126529,0.0007457000905746909,0.04475105383704623,0.06202369646082571,26,26,74,52,4
0.00030015291381581385,0.0007355699669342918,0.036765651719822,0.06076929753305734,24,24,71,49,4
0.00030879554398748863,0.0007036069170850041,0.0373738333915327,0.055009486985740715,24,22,72,44,4
0.0002932011551287021,0.000657376283092968,0.03510687437960752,0.05102510227454813,24,24,73,50,4
0.00022383639673052781,0.0006495123020675583,0.02507227225318928,0.04866600498931734,26,24,72,46,4
0.00022464566211330146,0.0006469148423011404,0.025806375828556764,0.04763327792887158,32,20,72,46,4
0.0002019471037881783,0.0006421235126233463,0.02181090069726468,0.04682131770379017,28,22,71,52,4
0.0002706092218972344,0.0006236690009062695,0.029085688195837185,0.04501508157109537,16,22,58,44,4
0.00024119137487134322,0.0006291585054790243,0.02615895432955107,0.04750010729532007,14,24,66,44,4
0.00024701768766663597,0.0006376171084417054,0.027812411762663556,0.044283384890060166,14,22,63,42,4
0.0002284445083132623,0.0006332311378697858,0.02565263738921054,0.043936629592971774,20,18,64,34,4
0.0001588293301510285,0.0006194409239882131,0.01836094947818852,0.04234233294476906,18,20,73,34,4
0.00018123772378476433,0.0006249445896612653,0.021301580759866472,0.04014037099003606,26,20,68,40,4
0.0001546024779014383,0.0006135960045209458,0.017439955592228884,0.039444899741965536,20,18,76,34,4
0.00017042030467103865,0.0006309896227468898,0.018653686805592946,0.03908617319749017,24,24,73,34,4
0.0007100720918225067,0.002068125769005452,0.07282271026626447,0.24191822821550543,8,8,76,66,4
0.0015294269128168466,0.003938128019306292,0.17382546450782974,0.3936249213465911,12,10,59,65,4
0.001684336889909795,0.004192377787791963,0.19358163108321944,0.41775021822904534,16,12,67,72,4
0.0017287517653379215,0.004294021754000273,0.21724232509539312,0.42467311784559064,22,10,72,60,4
0.0014144649796413058,0.0028541831669320556,0.16612208742771492,0.25238762273319104,26,16,70,62,4
0.0007997040444543848,0.0014375660837308733,0.10835942971189369,0.1477550418601982,30,24,68,58,4
0.0006546589883112755,0.0014163461409135414,0.09260640576533857,0.14169005762134929,28,26,70,58,4
0.0006114146803844098,0.0014286529587156786,0.09069670777150975,0.15320558729765915,32,28,77,52,4
0.000648116716077784,0.001334869719448678,0.09480834368050722,0.1376102877160284,26,28,69,54,4
0.0005345195085614435,0.0012141399926077845,0.0711731349721838,0.12166280667522066,30,28,75,54,4
0.0007241524912108982,0.001235501158428968,0.08840854250153311,0.11981223942671212,24,24,71,55,4
0.0005347510087285142,0.0011450237497245826,0.0667241957145693,0.10138461912151114,24,24,68,60,4
0.0006071000437855173,0.0011706052523598976,0.07118191146649211,0.09918899211961005,22,34,67,58,4
0.0005335234604216368,0.001264675537856153,0.0655746148287236,0.10817456433027092,20,24,67,56,4
0.00039350689694897355,0.0012746409710978838,0.049181397661078624,0.10588539747898831,20,22,68,55,4
0.00035051674558764635,0.0012074517546565283,0.04774416214149418,0.10511734249444009,28,22,70,58,4
0.0003492602624435024,0.0012129315378176806,0.048653171001655844,0.10361770352733154,34,24,70,55,4
0.0004279294192596981,0.0010718133312277102,0.052958683889049944,0.09250554796467073,24,26,66,64,4
0.00042044973210301573,0.001099674560745555,0.053083731009451234,0.0982517008962686,30,28,67,57,4
0.0004488917723118337,0.0010173424197248652,0.055078994685605974,0.09672930742582563,26,24,71,60,4
0.0004253763696815165,0.0010765751746880563,0.052194305417771175,0.09878308098609281,30,30,71,62,4
0.0040707227039972005,0.00613725306826522,0.5879074773372781,0.8321981772897051,22,28,79,63,0
0.004026143861569587,0.005797670718286382,0.6002868564154511,0.8352186864762293,22,28,69,60,0
0.004995854913866658,0.006007689732673937,0.7429398758799888,0.8277903947615305,26,30,64,67,0
0.005477136915506779,0.006186836284823756,0.8066010450731428,0.847449528914826,30,26,62,68,0
0.005343983841495599,0.0066024287526433275,0.8115004834132529,0.8082079869640878,34,22,66,67,0
0.005325942230656533,0.007100472761280329,0.8169360680030872,0.8487300833442015,32,24,68,63,0
0.005173017177849058,0.007112913880193481,0.7827575966938088,0.8327027634892503,30,20,74,64,0
0.005033406777673205,0.006968067790315027,0.7634868250027721,0.8283881660611208,26,24,77,61,0
0.004557789757055876,0.006635268551652972,0.6804562542365954,0.8067799609739744,26,28,79,59,0
0.0037520819967354927,0.0056157983178771916,0.5397075818128343,0.6682920424956712,20,22,64,49,0
0.002491232903441537,0.00439793057914224,0.358031648550715,0.5031420670803601,16,16,54,43,0
0.0014998098970307847,0.002328472698530995,0.191611008281743,0.29296148846148645,10,10,48,69,0
0.0002452963133759588,0.00045606797842181107,0.02900188717068458,0.059410804264015266,22,27,68,62,0
0.0002505281801141756,0.0004695075269623653,0.031959989313386915,0.05960854661557526,20,24,64,60,0
0.00024163675596952262,0.00043208665030973427,0.029629546959851007,0.059822577722980524,22,31,65,59,0
0.00020432433939612465,0.00045641687290710176,0.026157973864456997,0.059859719378926625,28,30,68,60,0
0.00023517485561563061,0.00044767634766299506,0.026736241089649438,0.06160074049769593,22,35,72,59,0
0.00020654810110456718,0.0005114148245153743,0.025621907366848697,0.0632463323701207,24,34,77,60,0
0.0002171263823948384,0.0005156349961341914,0.02652536907081132,0.06525422083272202,20,37,69,62,0
0.00021915904163990438,0.0005667351054714434,0.027973593455425008,0.06659503672471953,26,32,74,60,0
0.0002172578316250852,0.0005569537964989414,0.029365593377315473,0.06981000734959135,24,33,68,59,0
0.0005060622675339639,0.0005825372618480499,0.05335269676420073,0.07443066264436397,12,30,64,61,0
0.0012234878855022994,0.0011658127525378608,0.13342419894076338,0.1509470581195883,12,16,63,63,0
0.0015945147008383685,0.0017551231021796572,0.1734306823301249,0.21265703778840947,16,18,60,60,0
0.0020064552717101586,0.0024789531456650108,0.2207977340308708,0.2695069703810015,20,22,62,61,0
0.0024596106749994093,0.0030046658433570627,0.2822533493839156,0.3372739419228916,18,24,57,58,0
0.0023150983915859106,0.0042223675984523635,0.2736935363019237,0.39164284090661355,20,24,63,59,0
0.0024513480848137284,0.004452981839385648,0.30987192181687395,0.4560270205928501,24,26,64,59,0
0.002637680199974843,0.005577701699384683,0.36181858923524074,0.6023022395052139,32,22,66,64,0
0.002388169895543513,0.005863721197369105,0.362767569121666,0.6922823058193792,36,24,73,55,0
0.0028261598155188616,0.005676843522986685,0.4292517370695808,0.6705185123045613,34,28,74,63,0
0.003808008194382777,0.00637103465278851,0.5708976900013214,0.7051922118901693,32,26,74,59,0
0.005196540164077283,0.006543451388160822,0.6515552803601253,0.6448354150405465,26,24,70,62,0
0.005294013782718084,0.007085219587464965,0.73803122237642,0.7010541149006491,32,20,67,54,0
0.005530773918118147,0.008444724134475867,0.8022920437474573,0.8370117241193631,26,22,70,48,0
0.005652392016598475,0.008580909380350972,0.7817234872733582,0.9055135123815106,26,24,64,54,0
0.005099063234431034,0.008366434332319971,0.7262632439077183,0.9289364685003466,24,22,70,57,0
0.0050963222888099294,0.008240500482432599,0.6993619519164017,0.9499384810292705,20,24,77,57,0
0.005295503824073421,0.007250036967440101,0.6677752416067578,0.9029559159457593,18,24,82,54,0
0.004336508198589395,0.007036861445154652,0.5935459859416292,0.8843689514812355,22,24,84,50,0
0.004792642535424756,0.006590185281051014,0.6234534799579762,0.8657978191349038,26,28,80,48,0
0.0044091253928993076,0.00599082075233055,0.612915890162767,0.7816412778642178,24,34,68,53,0
0.003871481399580617,0.006457999548541879,0.533205878717699,0.7883099856945807,20,28,72,54,0
0.004015263594344783,0.0059470911236053055,0.5435564209409087,0.7603584485137509,22,28,69,60,0
0.003587889060527258,0.006294221090123125,0.4711473523886919,0.7696759168962063,18,28,59,61,0
0.0030268393692742374,0.006408782718468391,0.45023081437428797,0.7622791965608819,20,26,62,57,0
0.003188714522794769,0.006119960369122292,0.467342695562038,0.6943009974636072,24,22,55,56,0
0.0032128685553996644,0.005669485221053031,0.46494359579854483,0.6652912535984491,22,24,63,60,0
0.0032420813315519265,0.005335731145387519,0.4643288829805267,0.6252036518495209,22,22,71,59,0
0.006338039968075244,0.0040519254465570635,0.9495048635666723,0.49538076406533393,32,24,62,68,1
0.006611935711786938,0.004028544733432124,0.9594437623126909,0.47302169364498997,32,25,65,66,1
0.006990114670766112,0.00403822041813734,0.9680148426120111,0.4992290667166679,26,28,71,59,1
0.006337731103467394,0.0038124119627103627,0.8975020855372338,0.47982203808555435,22,37,71,62,1
0.00596828150041866,0.004143177030349757,0.8459481000581305,0.477406181310687,24,24,68,58,1
0.006403576854835616,0.004201555649109074,0.9125286921609617,0.4741161617816451,26,24,68,62,1
0.0065174048688302465,0.0047985546602328285,0.8843612023115798,0.49918468577680997,22,26,69,51,1
0.006238920788824789,0.00522916149260375,0.9093334706227276,0.5330509010388396,30,24,70,46,1
0.006601194744817063,0.004962286883716364,0.9369922509641014,0.5492823433484785,24,30,79,51,1
0.004712781385460157,0.004382078133636797,0.6653995571670626,0.45915771111580794,22,28,71,44,1
0.0035726372048878814,0.0035526972838602123,0.500372289001511,0.3463141100132531,20,18,69,48,1
0.0020625577878416257,0.002442328034472647,0.26276076339172,0.21488008762092403,10,8,61,43,1
0.00019023949619237067,0.0011826102199621665,0.026660373228344424,0.06872640904926806,22,22,75,51,1
0.00020735416303788542,0.0012194852400478704,0.02938859837125653,0.07405905866749221,24,14,69,46,1
0.0001750655659489781,0.0012087382814985684,0.025473815217508154,0.07364197197020698,26,20,71,49,1
0.0001914362945372654,0.0012031311456606648,0.0267803766862611,0.07981096328742784,24,20,67,48,1
0.0007162867996671486,0.0014141852176025353,0.09000683779299529,0.12982748244089903,10,26,63,54,1
0.0024527042704461603,0.0021683359810864876,0.26885486844545126,0.2071646092511498,12,18,53,46,1
0.005449496867115418,0.002502878632095213,0.582936896750519,0.2966561594756103,12,22,42,60,1
0.006643718288231518,0.0035932355647340635,0.804596069912305,0.41473024580780316,20,18,58,66,1
0.007706774940314445,0.0035995854693461602,0.9308948490609602,0.424364621297558,20,18,60,67,1
0.007797264406143312,0.0036085325469518686,1.0022470212398746,0.43474542334103555,24,24,67,64,1
0.007485775731930564,0.0035609458335594296,0.9805037965402914,0.41736353392682474,22,24,64,61,1
0.007764906617837122,0.003478740254162246,1.1489297821236333,0.3657778428062814,26,28,69,60,1
0.009640219863375323,0.0032340438917134785,1.3901267927745926,0.38506706184957035,28,32,65,64,1
0.00967591317614429,0.0039332920192839075,1.4457577280498422,0.4638399899322676,26,26,63,57,1
0.009644404920999357,0.0037948520680159874,1.404223172700088,0.46313909372137757,28,22,64,56,1
0.009415552909371778,0.0040098644590623594,1.2882947581073165,0.4722399343239437,26,28,63,58,1
0.007889058150753178,0.003653233318625314,1.108710136903248,0.4764246833882971,24,30,63,59,1
0.008171570328358503,0.0034554688192581706,1.1093663856331193,0.43012090422751637,20,30,63,57,1
0.007970144535278417,0.004152306193974298,1.0592988005770256,0.5058699636277039,18,24,71,52,1
0.007564991446174797,0.00415693283317411,0.9920298048568551,0.4906187580765685,22,24,73,58,1
0.007933026791746142,0.00403432975343607,1.0300302112441204,0.47385029167812964,28,24,71,61,1
0.008497074526891637,0.004098307761686257,1.0798736656605645,0.46155873078074044,28,27,69,61,1
0.009782888314111502,0.003922635392028242,1.302261741953786,0.4151769387219738,26,28,62,60,1
0.009763724565890137,0.004019936703441257,1.358005148205491,0.43137220933376863,22,24,68,47,1
0.009261095712929785,0.004103275645798683,1.3147884558138294,0.441876758224242,24,24,68,51,1
0.008617377819631926,0.0038829479087807684,1.2418117518645693,0.44266730376642044,22,22,67,51,1
0.00722944952153905,0.0035279155190018406,1.0498460984880666,0.42791541452327714,28,30,71,58,1
0.007488218683087288,0.004040680253610014,1.068562617688539,0.47759754347441596,28,28,64,63,1
0.0076330590133815756,0.004208811190558239,1.120771853574003,0.4785620389001466,28,32,63,57,1
0.0071056136930702125,0.00409685357998011,1.0476489113101302,0.4852041254271011,26,28,62,62,1
0.007615103045564859,0.003930305582736429,1.10550048232386,0.485346171875939,24,32,60,64,1
0.007022003897491066,0.0037825944720606703,1.0403117713350154,0.4520626167624499,26,26,61,65,1
0.0071358314025536836,0.003686416706403926,1.0164680630909755,0.43428088141972865,28,32,62,67,1
0.0071090173746756954,0.003659850892841215,0.9621029835490086,0.41115179063382,28,20,67,72,1
0.007145926926644003,0.003465067651849091,0.958751555271759,0.40635302977792903,26,32,65,65,1
0.007430593255652738,0.00370866194547807,0.9719110879701198,0.41878246659841384,30,26,66,63,1
0.007930208515556272,0.004043986870438305,0.9287216125556867,0.4418264088841652,18,28,66,60,1
0.005626790195491156,0.0011083641237788773,0.7792789458344271,0.11019013571452191,24,32,60,56,2
0.00418622806992505,0.0011104116584880659,0.5980987050594678,0.10856434897491066,18,26,60,59,2
0.00328868992054356,0.001061099738452243,0.5353477760929918,0.098843935364973,24,28,73,56,2
0.0029764994482219666,0.0011486950793624371,0.48516797715590404,0.09297724527913266,22,24,77,52,2
0.0030888686113451393,0.0011173657307194486,0.4634512920284241,0.09209609962441578,24,28,68,59,2
0.003230395298057914,0.0011699084673364652,0.469081493900288,0.09089121009579329,28,24,64,48,2
0.003469139542716285,0.0011090681326783036,0.5502096799160472,0.08822056875703377,30,24,65,56,2
0.0033399119057188277,0.0011384254778099663,0.5503657605237494,0.08974488232494417,36,20,66,62,2
0.00351160200199023,0.0010304797616430455,0.5821315890774653,0.08566945473951149,30,22,70,72,2
0.002772544190185131,0.002630644363120022,0.45601632272367276,0.1612280292205835,28,11,69,60,2
0.0016318492047941136,0.002555069417379602,0.28833448684683316,0.14917144381742764,24,6,67,55,2
0.0010632712197838844,0.002443657446016605,0.16948805496857444,0.14032381421598383,14,8,58,42,2
0.00018110883576063962,0.0009694326288832419,0.02095550899171999,0.05832578664993822,20,14,66,34,2
0.0001850953181071424,0.001007081372751728,0.02069456377178082,0.05855133707519745,25,14,60,29,2
0.00016892196728120762,0.001006230931566057,0.018415082331631853,0.058475535615720886,18,18,58,26,2
0.00016708974236324194,0.0010386458518784752,0.016764279686581195,0.060029440176174884,27,14,58,27,2
0.00018302119461274268,0.0010097198561531424,0.015536615270726372,0.05554697858196934,16,18,59,24,2
0.0008021806771389098,0.0010205664497015777,0.08975301027484248,0.05604874556016211,10,18,50,25,2
0.0015904862782035111,0.0010333155684535318,0.2005478888947725,0.05539305979861409,20,16,45,26,2
0.0025534934745854634,0.0010209015022637315,0.3086461779377098,0.0576599384255955,22,18,42,31,2
0.0030503638846736884,0.0010121391221402508,0.3945300330979832,0.05957424077886627,24,18,54,38,2
0.0032687895518648436,0.0010213821251761669,0.41550023385833756,0.062292090441181516,28,20,55,43,2
0.003371033658940741,0.0010205825488716908,0.4168790138229738,0.06365244930319057,22,16,57,45,2
0.0037231826607366353,0.0010099889613312558,0.47224614599356807,0.0683422192518079,24,20,64,57,2
0.003950448676181514,0.0010132506163173691,0.49435982189114813,0.07187419808567783,22,18,59,53,2
0.00429441537392978,0.00098533064504366,0.5817061615824796,0.07802599971664675,24,34,63,57,2
0.004287327967255643,0.0010302983358549899,0.5820199077699049,0.0843122163092952,26,32,64,71,2
0.004324886780479224,0.0010810372973765704,0.6319376836067708,0.09990385333538693,22,32,71,69,2
0.004682058104353292,0.0010981894208506116,0.7296670161091762,0.11057591937247013,28,30,72,72,2
0.004632131721851599,0.0011751387230189666,0.7938616335866583,0.11999530529062338,26,32,74,70,2
0.005587015482371821,0.0011210734099214013,0.9029636075415362,0.12079451847530306,30,28,79,74,2
0.0059995555493674154,0.001128059183939761,1.0726460501931943,0.127254480826238,36,28,71,72,2
0.005676449202230311,0.0011115055915223257,1.0198517486864054,0.12729580860595974,38,26,73,68,2
0.005756105949080187,0.0011745320031545821,1.0100051196917295,0.12746672218282146,36,26,71,68,2
0.0055510663836237095,0.0011852155449382285,0.976624421387111,0.13401053440815816,34,26,69,69,2
0.005010690010309843,0.001149489702398247,0.8762472563377001,0.12978366310858314,30,28,73,74,2
0.005389201031806508,0.0011391537974520568,0.9204686975848623,0.13630474957195074,24,34,66,76,2
0.005096591951395576,0.0011995156712382386,0.8731714711020659,0.13922977997148653,32,32,71,78,2
0.004488675272059148,0.0011583122466888567,0.810798286812835,0.13009120707898258,34,30,76,71,2
0.004191921941213351,0.0012211161595276508,0.7366669532662224,0.13059279910315266,38,32,78,72,2
0.004135503876480454,0.0012066173948757763,0.7109823469324968,0.12238544774257797,36,30,84,66,2
0.004303869102992751,0.00115268446767977,0.7207389633636921,0.11512186461224908,36,30,79,64,2
0.0038404368959022404,0.0011246787921211645,0.6650214666307217,0.1142732477744432,32,24,79,69,2
0.0035832851949462513,0.0010859502200667253,0.6443494352803639,0.10836049796972984,30,22,82,64,2
0.0034477852939737742,0.001085329903599796,0.6202558693390492,0.10616904242395493,42,24,78,71,2
0.003282830723555187,0.0010352049495290954,0.5698772779341172,0.1044036800337204,38,26,79,68,2
0.003396373937668984,0.0011423361743052001,0.6276021335265111,0.10808709124740538,42,24,80,76,2
0.0038335575818471516,0.0010450339993935054,0.6926213538103878,0.1014992829282881,40,26,79,71,2
0.004203527767029563,0.001118444694816627,0.7576343080095364,0.10374932017664579,42,24,80,81,2
0.0005437147628295588,0.009196713379103499,0.09357758336405696,1.3765305217463086,42,28,73,66,3
0.0005672012931211884,0.009226026122374161,0.0916254434170641,1.3705806956836455,40,28,70,64,3
0.0005971585242038973,0.009303707298428653,0.0909531613718394,1.4204760740471647,34,36,72,70,3
0.000632464849326858,0.010308354637106512,0.09328611076160609,1.48647983251716,32,30,74,67,3
0.0005958786126448323,0.010487386784648422,0.09369365679799802,1.4884735165336491,38,32,74,77,3
0.0006091356083345466,0.009544011300599368,0.0977131579734362,1.4961065258787591,40,34,73,79,3
0.0006197159362447127,0.01030662515810319,0.09568696105406238,1.4948963255436627,40,32,74,75,3
0.0006528918246481133,0.01070827075847115,0.09934634636210929,1.5293705143411256,40,36,68,75,3
0.0006268686818721104,0.011548694620414935,0.10005586733493622,1.6233223909470473,38,28,69,67,3
0.0005389582228258505,0.009157811532036817,0.07819320661085606,1.3404699804593794,34,30,57,55,3
0.00043022170165725134,0.006596164741414383,0.06059291535289128,0.9639358353324344,28,26,56,40,3
0.0002696480325163718,0.0039266971996752605,0.031943942919768105,0.467469764471997,16,10,51,31,3
0.00010114411995859685,0.0010144155204242784,0.00769395599799045,0.05400770288472565,24,18,67,23,3
0.00010057728067668838,0.000997061448119366,0.007778735684354829,0.05347994733933115,23,16,58,21,3
0.00010768854542446074,0.0010152084797472847,0.00777321532116671,0.053328846849317865,20,18,58,23,3
0.00010354418804856264,0.0010503982128447509,0.008045415061576461,0.06341967227956179,19,20,54,27,3
0.00010053778357298136,0.0011001614640373863,0.008562259683259521,0.06336226392082105,18,20,58,28,3
0.00010664559625151747,0.0011420717100329326,0.008667773728766861,0.06621412137887095,23,15,62,26,3
0.00010236386321390043,0.001228689585528676,0.009283405804002774,0.08817266199349914,18,18,76,34,3
9.836168389541301e-05,0.0012761583091139184,0.009459663886344933,0.09912788953287002,29,19,75,32,3
0.00012019614465874179,0.0015999075823613434,0.011714809679594247,0.12940103573297584,28,16,76,41,3
0.00013155856566555294,0.0017254644491282193,0.013174593369330077,0.15329832856575887,33,21,75,47,3
0.00014194225026153748,0.0021053683204735867,0.016637316585865092,0.21107168937392137,30,20,74,50,3
0.00017665391844906163,0.0021627982520532087,0.020783055301965735,0.24529210538471688,31,24,77,59,3
0.0002011465953471172,0.002428764469587891,0.025614159260433842,0.29794086924995516,34,26,73,68,3
0.00027787004092925434,0.0032635650562695016,0.03508416337748145,0.397778193599444,29,30,67,69,3
0.0003068358851598386,0.004138968094160332,0.04268398086553851,0.5205912060691614,36,24,73,68,3
0.0004223142776448776,0.0057710677023357256,0.06086873524023239,0.7562625743692183,35,27,74,66,3
0.0004856975212788122,0.00772356082013867,0.07122154502842613,0.9565536183427418,26,24,73,62,3
0.0006366681643986163,0.00798995070129556,0.0821011614417922,1.127025835665773,32,32,69,63,3
0.000643757742497949,0.008817504603413587,0.08924744784730404,1.2823043228334665,30,32,70,68,3
0.0006153161838797919,0.008885188571521527,0.08196009427948805,1.3353226523929673,30,32,68,63,3
0.000646529779818195,0.009097299568305565,0.08663665160799837,1.4712299021894455,28,30,67,70,3
0.0005757404975220426,0.009624313347687269,0.08117400917618711,1.4747607602253476,26,24,76,66,3
0.0004974869565374398,0.00966593610441127,0.08041307944633631,1.524502107165242,28,30,76,68,3
0.000464944387986468,0.008767587085813008,0.08008717531840347,1.4117103655626295,36,32,79,74,3
0.0004067719530027052,0.007568137352940718,0.07331886545943168,1.2344210809509084,40,36,82,74,3
0.00041035770790733445,0.007315839583010556,0.07089689783376209,1.217409469530582,42,28,75,69,3
0.00044587727088906147,0.006647868270215081,0.06754677913883368,1.1482446103217838,36,32,79,64,3
0.0004352366592444384,0.006870858032641552,0.06693419330035151,1.1201811313717531,38,30,72,64,3
0.0004648315905476035,0.00798039314544196,0.0673607060175039,1.1959909594700018,28,36,73,63,3
0.00044899097752579964,0.007458916320539098,0.06371123787316334,1.136757898375273,28,32,77,68,3
0.0004769294185941514,0.008298892250411053,0.06870046346815643,1.1961527939567917,26,30,74,72,3
0.00045394775824538804,0.00829540647387495,0.06435454760623273,1.1811590637683533,26,30,78,68,3
0.0004316141306849731,0.008185759735705574,0.06358136608283518,1.112140126701283,28,30,79,68,3
0.0004473541477564905,0.007952029811474009,0.06375953240719437,1.049086139628317,22,26,78,65,3
0.00038269433566376105,0.006579467033514034,0.05715191900253863,0.8588386898709807,32,26,80,73,3
0.0003667645426221415,0.007087622073970385,0.05698893395846346,0.9278482589566478,34,28,74,70,3
0.0003430106106920717,0.006691644305486933,0.05123118943852775,0.9148692513798151,40,30,78,64,3
0.000163513649182183,0.0014710268376253,0.014796899896933422,0.12112758587366246,21,18,55,42,4
0.0001552383378339839,0.0014620117751207918,0.013036355277551665,0.11801292282418964,16,16,56,40,4
0.00013649379183436154,0.001127466358379564,0.010853492565986746,0.08676800119827667,25,22,53,34,4
0.00013731961237181757,0.0010766055852753544,0.01097189975609676,0.07869697692015663,24,20,48,34,4
0.0001417830161854575,0.0010008335304995382,0.0099747131847183,0.06655012929099252,19,20,52,37,4
0.00013734636760299668,0.0010556147989105606,0.009839228315116806,0.0651320945136512,22,16,55,31,4
0.00013832177142229874,0.0010492812575721817,0.009600894564061097,0.058202832892194786,17,18,60,29,4
0.00014061996332114684,0.0010658222161804053,0.009401200845824582,0.06060290876935385,18,16,54,28,4
0.00013785248522283792,0.0010352380515185429,0.00922177258232862,0.06119024384245181,17,18,55,25,4
0.00014446039063820173,0.001069701044191791,0.009599421540429018,0.06036986248318109,26,16,59,27,4
0.0001834405930997889,0.00110071455411624,0.013186235344221635,0.06276576074091464,17,18,51,29,4
0.0001679531395810685,0.0010853307616221176,0.015187945954885373,0.05956566479865175,20,18,60,29,4
0.00016846110836339246,0.0010728192252488528,0.019045403374237428,0.059917154547494224,25,18,68,28,4
0.00018608475001966762,0.0010580599509174445,0.020970037024266044,0.06081826098946191,22,16,68,28,4
0.00016382252717591286,0.001069484730713928,0.01846110719990386,0.05913237983833578,21,14,61,25,4
0.00017025315216261637,0.0010423109066075064,0.01763079242036833,0.06118131721670655,20,16,54,30,4
0.00015947110804039852,0.0010572115244943743,0.014376052683028169,0.05908186043618551,19,18,51,27,4
0.00018590229879846933,0.001075830433336263,0.016806853678655656,0.058799570232157476,22,16,55,24,4
0.0008546434055679633,0.0012344078233759003,0.1253253893941564,0.10876835472615892,14,23,74,33,4
0.0011947025214880957,0.0018237589665015305,0.17855219347979198,0.1366473131835623,18,20,56,37,4
0.0012341621960522081,0.0019206708301549933,0.18474964516743347,0.14146143751393692,22,20,51,41,4
0.0012345068827037254,0.0017041862413062227,0.1872872926470176,0.1258268093580683,20,16,61,43,4
0.0007383659758828386,0.0011820649064125598,0.09300116990149229,0.0709890347942767,12,16,52,31,4
0.0003724661045240217,0.0007567103217958793,0.04518402289004733,0.047859514654186384,18,18,60,28,4
0.00035214766740830806,0.0007573962984698437,0.04109227005560778,0.047755544220639864,14,16,62,30,4
0.0003299743262184835,0.0007559307547984673,0.03674646508955938,0.046981112857415415,15,18,65,20,4
0.0003734326662242877,0.0007605515656110709,0.029849710052907104,0.04739576168521556,10,16,62,20,4
0.0002371371669021804,0.0007652570830206082,0.020837602384442763,0.048193931789111404,14,20,60,22,4
0.00019995626895391312,0.0007621157499333367,0.018033890783611662,0.048420911917404275,18,16,58,22,4
0.00016564570366374225,0.0007827559946980919,0.016864089749890454,0.04968572328281681,22,20,56,22,4
0.00016873351194688827,0.0007721537285296815,0.015487324291963514,0.04912347699415874,24,18,47,22,4
0.0001597254621580676,0.0007712906070037553,0.012312255038539013,0.048983219496492876,20,20,48,22,4
0.00013544410638293209,0.0007683873480013502,0.01183852123442457,0.048826695407367296,22,18,52,20,4
0.00013310918103064408,0.0007625537004368287,0.009612832078997248,0.047326486368909265,18,20,47,22,4
0.0001244930010184882,0.0007632566679096904,0.009430730301571523,0.047381102410882385,22,16,54,20,4
0.00012593760998982724,0.0007624797968650786,0.009380172007852277,0.047799153201206375,22,20,48,22,4
0.00012626294480118158,0.0007792180423945598,0.009412229128902381,0.048999000104221854,20,18,50,22,4
0.0001294120849053029,0.0007837918041843604,0.008624742279141331,0.04928903602896201,24,20,62,22,4
0.0001164332452524675,0.0007898930687316411,0.008208315560460458,0.04951094720243483,20,18,56,22,4
0.00012067525477900904,0.0007831374562689967,0.008267839699140576,0.0494602952558815,28,20,69,20,4
0.00011750607144596267,0.0007688462226789868,0.008043980526638421,0.0491836276928056,28,18,70,20,4
0.00011722599794141855,0.0007615111461538048,0.007803148937339816,0.04913261028756428,26,20,65,20,4
0.00011744782799469344,0.0007812456003401722,0.007788698614639237,0.05022923077335997,24,20,65,20,4
0.00010887998868522264,0.0007793923959269469,0.0076660534833401265,0.0504531996830815,22,20,64,20,4
0.00011153273760610837,0.0007844248573552844,0.007905545850523719,0.05100960459371119,18,18,56,22,4
0.00011374113864562223,0.0007870311705515976,0.007855613041484927,0.05063676148138981,16,20,54,24,4
0.00011402132526883141,0.0007802320569906028,0.007840572209980525,0.049168994653502635,16,18,51,22,4
0.0001161515420659272,0.0007664397200248668,0.008102896584594479,0.048672255261024956,20,20,61,20,4
0.00012080619995432321,0.00077277967344112,0.008381215290743357,0.04853336011775899,20,18,54,20,4
0.00034806061861269907,0.0011430843139463081,0.049553337770286456,0.1246400809702317,20,20,63,46,0
0.00031049453585449237,0.0014837296333968571,0.04505891133395198,0.16793602023039947,26,14,66,50,0
0.0005830347788642512,0.0016055814541019531,0.07229094039955626,0.18075643233885444,16,18,70,47,0
0.0007196622729419891,0.0017316237542820865,0.08872047510989174,0.1941684046522103,14,16,64,55,0
0.0011777060325583219,0.0022052058874052344,0.12726995473907912,0.2337716486030141,10,18,67,50,0
0.0014134614236652892,0.002178979119034394,0.17175237598754775,0.23637557801978254,12,24,69,59,0
0.0013411828221216882,0.002168791952045143,0.17716321210419714,0.24150022797719572,16,20,67,66,0
0.001670385801216997,0.0026527164181688336,0.22400475570691455,0.3133988634468445,16,28,70,66,0
0.0017411854911611577,0.002689534579657625,0.24383823472193267,0.324088485512264,18,30,75,65,0
0.0021066884461805723,0.0028748503300107258,0.2720729549608053,0.3525698093083902,16,32,76,66,0
0.002778267257299058,0.004053369556278752,0.34447855879922906,0.4484978906830915,22,20,77,59,0
0.0030329565758078604,0.004594011001502167,0.3731981815490671,0.4987002761961118,20,18,68,58,0
0.003063537809334842,0.005313491678791285,0.4012923418745679,0.6126545538322105,22,22,64,58,0
0.003131695551619954,0.005825289235469858,0.42552907461957873,0.6919018790506309,22,20,63,59,0
0.003124268020430138,0.005604327175652341,0.3920185048029183,0.7701687682204719,24,30,62,60,0
0.003111192544810892,0.005947748218741552,0.4099830167733357,0.7890316980189879,30,30,65,62,0
0.0032158881493041264,0.0064151338726169726,0.42147527395161466,0.8221571637234845,36,28,59,61,0
0.002966841116837439,0.00627675518719991,0.4261583414395086,0.7690828941414434,30,24,61,59,0
0.003299901354063728,0.0057857847140208194,0.44135277006954404,0.7049290858780659,22,26,64,63,0
0.003141796145593489,0.005535618350829303,0.45637673187919,0.7060547659531075,24,26,67,68,0
0.0035191823376341234,0.004941475539494291,0.5178004985109926,0.6646557402951606,28,30,69,69,0
0.003348984358549126,0.005087274106870547,0.5060725354975683,0.7022141741798209,36,28,70,73,0
0.0034657901797620224,0.0055212722832318605,0.5111506196711002,0.7577881018995126,30,24,69,65,0
0.003742360272434222,0.005547191753293015,0.5051383711000748,0.7476356458125882,24,28,71,64,0
0.0078085533082846515,0.003581750861010694,1.0279449490391361,0.4053516111387652,26,22,59,65,1
0.008471444295108783,0.004521077986112502,1.1293338422009132,0.43627100315834705,26,24,53,54,1
0.008146680036138393,0.0038571831969889843,1.1557638750848103,0.4292571709890234,26,20,59,55,1
0.007818475614812673,0.004440755824314176,1.1053790677433468,0.45887831114624705,26,24,59,53,1
0.007372570683066506,0.004094613507531013,1.0582131550830822,0.4538213459126688,26,24,64,56,1
0.006755865916204286,0.0038368041737818948,0.9653900709718114,0.43159136811846377,22,28,72,57,1
0.006853893777442537,0.0035291662050877313,0.9506381815688267,0.4162756369705145,22,26,70,57,1
0.006527004604581543,0.003221101373454612,0.9099864709196811,0.3521622702349774,22,24,70,70,1
0.006074650175688158,0.0027532603997623417,0.9031448964677666,0.337666558818214,36,24,65,65,1
0.006641988666668672,0.003029797307553163,1.0069517129747487,0.3366378699592687,34,24,64,65,1
0.006777566358982432,0.003887951257486428,0.9836253589040707,0.4298014751522737,32,20,65,62,1
0.0073213093157720325,0.004355194278638353,1.0159216832011198,0.46767265887068005,28,26,69,58,1
0.007059161722541607,0.0045102151850999654,1.0150893811568986,0.5239392200626554,26,24,63,57,1
0.007186374083939925,0.004867308297404118,1.0163361996219848,0.5431517985412024,24,26,61,55,1
0.007581804372027191,0.0038568548385860364,1.0540713654994787,0.46816504430684314,28,26,60,60,1
0.007129618798772171,0.004112515462973221,1.1169257693506995,0.4849330743889339,34,22,65,58,1
0.007318977605440864,0.0037255749538949896,1.168081510735406,0.4719477003664064,38,24,66,61,1
0.007468788274818366,0.003675635618584362,1.1279996208651057,0.46977015302598485,38,26,69,55,1
0.007570699880044225,0.004210162233080706,1.1143666945019943,0.5012561680103146,38,26,74,52,1
0.007138530840582605,0.004149436487864607,1.0692263328887328,0.498144468701162,32,28,74,56,1
0.0069254992489471414,0.0037860240053353474,1.0381211733241966,0.4565081135322198,32,26,74,62,1
0.006374237979530624,0.0038788369602120593,0.9967711129615459,0.4865697692698848,34,27,72,63,1
0.00599551863070901,0.0033370322463426682,0.9167901829259477,0.44459743311830496,36,30,71,72,1
0.0064504297853320005,0.0039127389326962725,0.9445400400942178,0.44929655517269673,32,24,68,65,1
0.0006397798512213227,0.007574224792274392,0.0802233494941161,0.9205348582418875,26,30,66,61,2
0.0006504394647223864,0.008735626355060574,0.08751750628660246,1.1414244057646101,28,24,68,68,2
0.00045893502735145335,0.008861236497607013,0.06821037386331001,1.2487221155022092,38,28,68,70,2
0.0005601855735605511,0.009154289046128992,0.08854831437599214,1.3568549213265981,36,30,68,73,2
0.0006206722251931408,0.009871830454803616,0.10473272846482208,1.5761380994665408,40,32,70,71,2
0.0006521214691002726,0.010680718109578166,0.10925630369264484,1.6441369672534114,38,34,72,70,2
0.0006943096973571358,0.011126433342433286,0.11638742456228005,1.8554465949482581,36,34,76,74,2
0.0006911235949271158,0.01131187347117022,0.11354198003683556,1.8539711530862388,34,38,76,70,2
0.0006745577957431882,0.012082511933767148,0.11100880983207864,1.887805777413208,36,36,74,70,2
0.0007213030046998139,0.013230579210355496,0.11576007017249973,1.8502438198532167,28,30,76,65,2
0.0007600322908798843,0.012989791568115494,0.12050241471615881,1.8836268572807027,26,26,70,61,2
0.0007258155705326089,0.012477517619115516,0.11987540368908035,1.816936912196171,30,28,70,66,2
0.0007247563133499082,0.012420792998240617,0.1221637068548629,1.7150482095561148,32,22,75,68,2
0.0007242773037741192,0.011993989057442424,0.12440532248751598,1.7796186587096638,34,28,71,66,2
0.0006555983961400106,0.01055251510665532,0.11288718353155197,1.5531824508330598,36,36,75,70,2
0.0005578360920804424,0.009049598799193797,0.09528465449071835,1.332598695321437,38,34,77,66,2
0.000740509930189011,0.007866208911609078,0.09455418596418014,1.1603149342298367,26,26,74,60,2
0.001990221189308861,0.005575932348201036,0.18450165539791671,0.6907817407051383,10,18,62,53,2
0.002698531849239685,0.0030237312116228204,0.2374160376029391,0.33910085327513734,14,10,53,66,2
0.004191123498636497,0.001952884103633446,0.38630604460906615,0.19483385660337527,16,8,46,51,2
0.006916742800403787,0.0011347676050571399,0.6421145651941006,0.09115278336315831,12,18,40,38,2
0.007130804844426334,0.0011747187912406647,0.8196179893462824,0.09549550264056068,16,20,40,46,2
0.0075788283420314675,0.001187522113528927,0.917790249606936,0.11612879824772465,20,28,47,58,2
0.007381515626408844,0.0011778530643628134,0.9152283387253459,0.12178384991196596,18,26,51,62,2
0.0002836033828147789,0.005427748026955279,0.040686906250149694,0.6541696315869588,36,20,75,67,3
0.00036759989674614655,0.0076323626345186505,0.05083750252916419,1.0813034051045207,36,28,74,67,3
0.0004427294555292039,0.009849230828906286,0.06520498721851539,1.3493831819449371,34,32,73,62,3
0.00047632871410022994,0.009980021814348566,0.0736822549115074,1.5122290664314875,34,36,73,60,3
0.0005394168386650557,0.011795307573321066,0.08536719830339329,1.701131692226579,40,36,69,63,3
0.0005745468636622603,0.011080692449716855,0.09052784235295325,1.5529573278950193,40,34,66,59,3
0.0006041770745269478,0.01054650788816842,0.09378404215322664,1.495109573819311,38,30,70,57,3
0.0006162106997963806,0.010609258448190004,0.10011695457242743,1.513613080629409,38,24,73,62,3
0.0005710612712224707,0.00959472643871495,0.0946686688524589,1.4142218040364007,34,26,75,64,3
0.0006190230342626378,0.008331196323015403,0.0969846486140517,1.364953360403204,36,32,75,74,3
0.0005523627770935098,0.007904612798400084,0.09209209254535464,1.320990275925026,34,30,78,77,3
0.0006616405168076503,0.008557347088344209,0.09875437676776776,1.3254292871272286,34,32,72,74,3
0.0005988924849902597,0.009167481824567912,0.09972798205115264,1.296023888857785,34,38,74,71,3
0.0005883550063702492,0.009592697198428578,0.09787150107002476,1.28148509501814,36,38,75,61,3
0.0006419838100760136,0.010010190746187708,0.1103439814478088,1.386011954621153,38,30,69,64,3
0.0006161521601878206,0.009267735195115895,0.10353501064718236,1.3246491133368643,38,30,71,63,3
0.0005989575003886732,0.008446638085287358,0.09885634491295243,1.2518503695072651,36,28,75,68,3
0.0005739516127903336,0.008714073707561972,0.09831087805428934,1.3291650502835781,38,26,76,72,3
0.0005348242865287204,0.008805097133345392,0.09115171227444001,1.301624669025366,40,24,82,64,3
0.0005427388947833276,0.008432720429498428,0.09291549308901927,1.1804035548957656,38,22,83,64,3
0.0005712795080631046,0.008494416473875294,0.09870427803742447,1.215149054908129,36,30,77,67,3
0.0005753820550829981,0.008694163731686883,0.10117496122429592,1.2012639727313432,32,22,79,68,3
0.0005557788108332055,0.00811271440816247,0.09972723803703047,1.1947936101011194,40,28,79,69,3
0.0005354778351272448,0.008682917782135468,0.09740080690391956,1.3600219094367474,44,28,75,69,3
0.0004434472282970423,0.0010063348724772252,0.05035449877355674,0.09672003072586498,24,26,70,58,4
0.00046320082703221293,0.001003755854756568,0.05802990234489934,0.09050379615529196,26,20,70,64,4
0.000509881417215088,0.0010934597202565872,0.05629611130461179,0.09533558828882432,20,24,70,66,4
0.00041847773184790877,0.0010885920711148577,0.05483932204276851,0.09347962108088946,28,20,71,64,4
0.0005027968680865419,0.0010924869738761364,0.06044042167858291,0.10043769170793784,22,20,64,60,4
0.00041632735440414197,0.0010922530697033376,0.05592075417627922,0.10574179292259722,26,24,64,56,4
0.00042442021364523644,0.0011414871210039263,0.05211611857844337,0.1128039977235399,28,26,64,54,4
0.0005164794674052453,0.0012275459225234112,0.06612824263041568,0.11708324229514372,26,26,64,50,4
0.00045296048902161083,0.001170753834178081,0.06066388137884732,0.10731735103372968,26,24,63,50,4
0.00044630964238844185,0.0013613022809422953,0.057477527485990075,0.1167408663926127,18,23,65,45,4
0.0005994251344954018,0.0015067758554291263,0.07678521604217702,0.11716158273083645,16,16,65,50,4
0.00044310244653671636,0.0015323437031421485,0.06466050337295007,0.15375379797142952,22,18,71,52,4
0.0013237942573518533,0.004628726560713917,0.19716612414100404,0.2997011990760285,22,8,72,48,4
0.00222598051929374,0.004672664659811195,0.3401376187277122,0.3107974397568708,24,10,70,55,4
0.002406181673500669,0.00418685597400504,0.3811500961163957,0.2749518323840481,26,8,70,58,4
0.0029564093929155657,0.0012344924024355612,0.4762814602455453,0.12651034531389685,28,26,70,65,4
0.0024394031449839503,0.0010833266705581935,0.3932881952594754,0.1040156341425966,26,24,65,60,4
0.0016228154448465848,0.001059543062587812,0.24385186541662032,0.08807267530488895,26,18,66,57,4
0.001331186496273123,0.0011632641338710223,0.19278005513884103,0.08248128796739139,16,18,64,46,4
0.0005768137177753591,0.0010663117053836561,0.07831262355735898,0.06738223847145375,12,18,59,35,4
0.0002756145447371111,0.0010642027844360604,0.029533590762421662,0.06894447169150915,21,22,67,45,4
0.00025271670295834816,0.0010484215712456865,0.026525402758288876,0.06487128090400607,12,16,67,28,4
0.00015585466343258163,0.0013979886773802684,0.016385626374216512,0.10700566371515279,25,18,65,37,4
0.00017187790515776492,0.0015496645029511246,0.015407463743344967,0.11436307258105625,20,16,54,38,4
