f1ch1,f1ch2,f2ch1,f2ch2,f3ch1,f3ch2,f4ch1,f4ch2,Category
0.0007125250365106657,0.0035523482665650386,0.12815852807446718,0.4901378418600212,34,28,80,62,0
0.000726641421748775,0.0036593562093771813,0.127412501786885,0.4928645109778858,38,28,75,57,0
0.0007344673601755629,0.003202113798516902,0.12571970378625158,0.44386276481610537,44,32,77,65,0
0.0007445314332560481,0.0027907451815831173,0.12161768621110139,0.4199342331351975,44,34,81,65,0
0.0007390951822884494,0.0030119686477201022,0.11951009151658736,0.4197005031038065,38,28,81,61,0
0.000738799950991385,0.002982024127413588,0.12551511251570474,0.419636282135413,38,30,86,56,0
0.0007362015642328656,0.003392153653680049,0.12523582767034835,0.4317799607387119,38,30,88,55,0
0.0007465120660674483,0.003664502756012455,0.12534895564789747,0.4053123774330986,36,26,83,58,0
0.0007744977138652153,0.003604833994721678,0.1279817209558139,0.43373300660594155,38,28,85,59,0
0.0007338935723424347,0.00371055474719908,0.12141033244869442,0.43615737985113207,44,32,78,61,0
0.0007469641773971569,0.0034211673059023413,0.12531854259180236,0.44590989771210193,34,34,73,65,0
0.000815359875455481,0.00405386313468985,0.12575346171630786,0.5011038717379978,36,30,75,55,0
0.0007395995513486708,0.0035894722714713357,0.11513417004761306,0.4316874152569791,32,32,75,56,0
0.0007007720549415892,0.003500373553576992,0.11178139095915089,0.4019975133637082,34,26,81,56,0
0.0007005483003211387,0.0036395278140853166,0.109822422430361,0.3642623289012079,34,26,84,51,0
0.0006790853912748775,0.003542630777677951,0.10577274969123682,0.34262368307818386,34,26,86,52,0
0.0007456893645797649,0.003440387432453204,0.11609958956563578,0.3760441807204114,30,26,86,54,0
0.0007413378513499209,0.003451485323828331,0.11873765258746943,0.3890440081525469,38,26,82,56,0
0.0009166429833648561,0.003989647597033377,0.12438255073638009,0.4214122089840549,32,20,83,57,0
0.0008609768127902664,0.0039526137232365035,0.12822195005467493,0.44301724551424154,32,24,74,53,0
0.0009175858735277935,0.003800747407647862,0.12659183941126265,0.4392308680715854,34,20,74,59,0
0.0009211843545664805,0.004044982570142191,0.12485550418772604,0.4424701961832517,30,24,79,52,0
0.0008689637673549662,0.004002802086177345,0.1171668400667685,0.4282770638142112,22,26,76,59,0
0.0008035281933390553,0.003369003088674852,0.11338208347044564,0.4014467681379313,32,24,79,68,0
0.0007767183941382111,0.0035854574057604,0.10625303797070682,0.43340232368091364,32,24,73,65,0
0.0007282165586819924,0.003765864567748206,0.10569536270290703,0.4891196169362424,28,28,76,65,0
0.0007814749733659882,0.0038869944405053635,0.10515982161516489,0.5045489657774743,26,28,75,64,0
0.0006920759862062817,0.0037357512925509915,0.10255885857508239,0.47307582386239333,24,30,75,60,0
0.0008347292863486528,0.0038500588666062906,0.11384688494736615,0.4375299260625808,32,22,72,65,0
0.0008555931565683106,0.003568640623800394,0.118066379266553,0.3927933611987199,32,22,69,68,0
0.000824171665204386,0.003505388579363661,0.1212939416803986,0.40996926841840886,38,26,77,59,0
0.0008775410504459105,0.003256827951093015,0.12595839919924837,0.4106713612974631,44,28,77,63,0
0.0008420154999005522,0.00337712396360982,0.12390171954101165,0.4364824383917799,34,34,76,65,0
0.0007400106577665441,0.0030010089762283797,0.11763132966489692,0.40439679127139316,40,28,83,62,0
0.0007834864724179627,0.002619739227623747,0.10798309004377685,0.35363689676613375,36,22,79,60,0
0.0007333672399111743,0.0032743471364614068,0.1043556921813171,0.37203715384503705,36,22,82,61,0
0.0007062959755019235,0.0031463127243985707,0.09848443651229692,0.3379579832736228,34,20,84,55,0
0.0005865276138016206,0.002954425884931111,0.08840551040889377,0.33319088167442773,30,18,85,56,0
0.0006032881856775532,0.003161842538614348,0.09165912597187913,0.3457203209043644,32,22,79,52,0
0.000684144125812084,0.002838925144319645,0.09357221227656738,0.3330508978607465,32,28,72,60,0
0.0008826921962040802,0.0026117194113356042,0.10092562111852647,0.31480465203542707,24,30,65,61,0
0.0010756797090488656,0.0029936787531062423,0.11708648577941858,0.361029423432513,24,24,65,59,0
0.0009053315594230686,0.0032553920768483018,0.10761121399442082,0.3814658249463213,26,28,70,60,0
0.0008908545957198594,0.003530976572810542,0.12200483185214263,0.4217246831407928,30,26,72,58,0
0.0009053173659519241,0.003802816421606065,0.13529393041566723,0.4952954064550726,30,24,80,57,0
0.0008421505008913747,0.004240128264387903,0.13330028443542227,0.537980861410855,36,26,77,56,0
0.0008868826086949904,0.003915702432218044,0.14354906907340623,0.540768841114647,42,32,72,63,0
0.0009191607351076922,0.004436152509511077,0.14468189915220922,0.5919040886809261,40,32,72,59,0
0.0015439778581304037,0.0019147312874907311,0.14946640179641926,0.25983078453897385,21,30,67,63,1
0.0024626584458193445,0.0021499412638219355,0.21898285038478224,0.3149079534281186,12,30,60,64,1
0.003136596140415831,0.0021181991391224595,0.27364352247016543,0.3352536257214418,19,28,60,70,1
0.0031597364786565213,0.0022660222724463167,0.2920164112991633,0.38364954569625387,18,34,58,80,1
0.0035624865239701283,0.002400076068572449,0.32332411553915164,0.37434422475874374,22,30,55,85,1
0.003009325595440977,0.002130160678900537,0.2920175774212144,0.3472217868491106,20,34,65,85,1
0.0024994120365039313,0.0021330371480201542,0.2691572486963407,0.34453611653666266,25,38,67,83,1
0.0025219123666383823,0.0019110716905417742,0.27026834254494425,0.29716833090428996,26,34,59,85,1
0.0024590742475849208,0.0019145110009163115,0.2681487551084599,0.32619568937764976,22,36,60,79,1
0.0025820997841390536,0.0020316807499006976,0.2802822591255649,0.3486726297032532,26,34,63,84,1
0.0027171326945529665,0.002048217316578302,0.28613540904911106,0.34781157833659576,24,36,66,78,1
0.002895774428161435,0.001939560296289631,0.2948992119207543,0.3299410953762539,28,38,63,81,1
0.0032366384912288076,0.0016774088806371745,0.3087253705682478,0.29428599747061557,22,40,65,87,1
0.003432732780788222,0.0016444771067379257,0.313633958054038,0.2858340312259011,22,38,52,79,1
0.0032155732220920962,0.0018226329418272636,0.3341699627437097,0.2966234030155412,26,34,51,79,1
0.0033225922779123486,0.0018740228526059632,0.3255764990379864,0.30435371228955843,22,32,47,76,1
0.0034166829545590307,0.002194701560214414,0.32693163713846635,0.3276144709166748,20,34,47,70,1
0.0036400554771269383,0.0019996051651209644,0.3347685391887631,0.31777724264679164,20,30,53,79,1
0.0035702328256278565,0.0018734037116502837,0.3188912128586467,0.3207331923456947,18,32,57,87,1
0.003347979110291677,0.0018965532723964774,0.32586832082590633,0.3254143363599434,16,32,57,81,1
0.003112087327927991,0.0017500097273157895,0.3060580860107491,0.32076093324461064,16,40,61,86,1
0.0030755996526276998,0.0016933136943704202,0.28494523526803345,0.29896391653107995,16,30,54,83,1
0.0029926385176419295,0.0016472162255254344,0.29435196269656055,0.2870802588781505,18,34,53,79,1
0.0029468909154600543,0.001897789700443107,0.3035807419034194,0.3153622684097374,28,32,54,69,1
0.0033152681820997542,0.0020359767702617143,0.3154169859385163,0.30943185774627396,22,36,53,62,1
0.003399785580972868,0.0022720339978618193,0.3151760842798863,0.3449551765777608,20,34,58,62,1
0.0032775187985884333,0.0022910425236783243,0.3047100098653921,0.3403996558763369,22,24,61,73,1
0.0032584168184889117,0.0019275050548048132,0.2947724567618086,0.30943140240638684,22,32,61,82,1
0.0028338623761794456,0.0018855598783437842,0.29625898048736155,0.2960611301524686,26,30,62,82,1
0.002787194355272553,0.0017388078716615626,0.2897690384399596,0.28338829934988014,22,34,63,85,1
0.0030105461697519354,0.0016160970713596156,0.3075566027761613,0.2665603575682422,26,34,59,84,1
0.0027773619061725167,0.0018349805350121192,0.2970546101058258,0.2821339425207227,22,34,63,82,1
0.002679993613426493,0.0017410042451167713,0.26138785113026675,0.27182860929100555,22,30,66,86,1
0.0027484499558340166,0.0016255490803074588,0.2608588905893205,0.2596054577836534,26,34,62,83,1
0.0025820798926204968,0.0018612950370504337,0.22484301805010176,0.2709217798929872,22,34,66,77,1
0.002832626985704416,0.001617878978944043,0.24448945210642323,0.2539077016861406,20,40,59,79,1
0.0031292613085527206,0.0017507669614608887,0.24376730517574893,0.2795451157764752,20,32,57,76,1
0.002903334466067382,0.0016292912988486112,0.2475431412310689,0.26518364548523343,18,32,56,73,1
0.0028241038600409336,0.0016771771470216346,0.26013049031592744,0.29413490583611557,20,30,54,75,1
0.0030525738739905434,0.0019204606753440879,0.2730567339077011,0.31277674854391246,18,28,60,78,1
0.0030227894645796657,0.0022126391845537696,0.28906007153157426,0.3341896584909154,24,30,63,73,1
0.0029840566895287207,0.002219228001385597,0.3046976916944953,0.3497026317313512,22,34,70,78,1
0.003429806440085474,0.0022867022849932606,0.32631504133256445,0.3512081940694511,22,30,65,82,1
0.003587254656231384,0.002363695099145106,0.35231644008799823,0.36899957190469396,26,34,60,81,1
0.003760484214955071,0.0020112703641554795,0.3670914649804725,0.3229409229490791,24,28,53,84,1
0.003507251032164576,0.0019068732030183538,0.3622422104384547,0.32023048857668535,26,26,49,84,1
0.00325413857839774,0.0016262737648530994,0.33824747518506143,0.28246135526714156,18,28,55,83,1
0.0027922585760929834,0.0016798229746803916,0.3012054539109803,0.26799611089642966,18,32,64,82,1
0.0012793361117940016,0.000547073131908159,0.15448636941028077,0.0773985395534683,30,26,72,79,2
0.0018059943924723148,0.0005822548798976327,0.22057351855301566,0.08874254175272656,26,28,67,85,2
0.002042574106466423,0.0005493153076467048,0.2443867006223068,0.09429053478377096,28,42,62,90,2
0.001989816110295006,0.0006027095489282096,0.24257991357686037,0.10182523427019718,28,36,69,89,2
0.002048566463392232,0.0005652522450409104,0.23557561429789214,0.09530414904630573,30,34,64,89,2
0.0016084654882216893,0.0005784837908173568,0.19760249618970496,0.09858352985770862,26,36,73,88,2
0.0014009417748596929,0.0005892302046199415,0.17046575821133494,0.09945183675041755,28,38,72,88,2
0.0014658654741049367,0.0006000342986272303,0.1920751575633165,0.10513395908829781,26,38,76,87,2
0.0016191715928042805,0.0006519281991798285,0.21778527194675978,0.11235895923701907,24,36,73,81,2
0.0015970575634387874,0.0006395570974235488,0.2230624140408185,0.10650429885251231,24,28,69,82,2
0.0018363579517679696,0.0006660531156429624,0.24406417388885743,0.104798755213742,30,31,62,74,2
0.0018306243885147482,0.0006069291507547934,0.23881357682693294,0.09943293981516389,24,38,61,78,2
0.0016408856251313845,0.0005683350567986988,0.23151688330311782,0.09202897100266283,32,38,65,79,2
0.001447177974531814,0.0004945793778543912,0.21536025553316537,0.08724293725209643,36,34,71,83,2
0.0014026105506042324,0.000444446807398562,0.20925172255663554,0.08109533907194535,32,38,78,86,2
0.0011221415852950298,0.0004919801079323815,0.1832303130413959,0.0776227380133374,32,34,76,87,2
0.0011185537290669667,0.00046795110527601743,0.17613067951132985,0.0767761655284815,36,36,76,83,2
0.00105873434569595,0.0004983827539763993,0.16450575774408874,0.07657683550661093,36,32,67,80,2
0.0010282448785803725,0.0005138624358863665,0.16084282384914117,0.0763631580856356,34,30,63,74,2
0.0011198175016670553,0.0004678190347426222,0.16935718231925936,0.07586639638165439,32,34,61,79,2
0.0011663639178398888,0.0004926349909677931,0.16508711306720095,0.07167105421592715,32,30,63,73,2
0.001157741672780097,0.0005523901262223008,0.17257705310787658,0.07313459450891537,30,32,73,76,2
0.0011070414206632768,0.0005305021913031499,0.15967779683779465,0.07351739614807022,32,34,67,75,2
0.000946304556572128,0.0005284738291755776,0.1490902350093461,0.06985217278095036,32,28,71,72,2
0.0008572071596388739,0.0005000629097482074,0.14004645812435013,0.06947951735383058,34,26,74,81,2
0.0009017768794102629,0.0004396725706663285,0.13977437303408638,0.0640018321560748,28,28,66,80,2
0.0009490513941077093,0.0004065450540021425,0.1514531299497105,0.06381497448124793,36,32,70,87,2
0.0009815651073994864,0.00046654756434554115,0.14476836488626166,0.06650843382969908,28,30,72,88,2
0.0010174608247976384,0.00047343744680572024,0.15882266069805615,0.06874742360845452,32,32,76,83,2
0.0009544600618850335,0.0004988900703738462,0.14191247329452075,0.06800208075296199,38,36,68,81,2
0.0009098595737807074,0.0005482974734323976,0.12952396495007215,0.0695377966467084,32,36,64,82,2
0.0009068602069911061,0.0005038373854151374,0.13746215133121795,0.07264685616372098,32,36,68,84,2
0.0008959245384066008,0.0004981565692029913,0.12111264657460394,0.0728347787089135,26,40,62,84,2
0.0009348364528089298,0.00046764546161671847,0.13026469355798256,0.07125631019341504,30,38,70,82,2
0.0008528231454218477,0.0004553755182246224,0.12926115830270266,0.0674091926651054,32,35,76,84,2
0.0008080372891254825,0.000456569546079763,0.12424769633673044,0.061041064594289256,46,28,79,72,2
0.0007942845384326286,0.0004551835711870951,0.12056683963055566,0.06227919459439038,42,30,78,73,2
0.0009036149566149275,0.0004693138556621661,0.11835852575763149,0.060892487090273326,32,26,79,67,2
0.0008446463046393557,0.00044552018525260186,0.12325930273300592,0.06337508594561413,38,30,72,69,2
0.0007524766725069825,0.0009523358411981857,0.09637279248663565,0.08223704354345873,32,16,69,74,2
0.0006135154743312592,0.0008723583735479482,0.07605286650338247,0.0729258414296587,24,14,61,68,2
0.0004370054344417647,0.0008356201151540408,0.04461933539365931,0.06780073927185379,18,14,64,66,2
0.00018509797834048605,0.0003068325383433359,0.018622447648855903,0.03414885846772828,18,20,63,70,2
0.00020892969387418525,0.00029083115004979883,0.01865074142611135,0.03422840639864702,21,29,54,70,2
0.00020968595468553588,0.0004341531713705528,0.022249061027203403,0.046126335143540524,20,32,62,71,2
0.0005416338511600303,0.0004372148295137525,0.045925682005838984,0.05092543303165126,13,26,64,72,2
0.000812132154895808,0.0004738417806883586,0.08080679657587492,0.06443286316665615,16,28,63,73,2
0.0011505914619409727,0.00057464676945114,0.11783742953553668,0.08566825019546392,14,26,57,80,2
0.0004583952151968788,0.004831057305530597,0.07513089054436431,0.7583691975599801,40,34,69,66,3
0.00045541034197387934,0.005237214564681285,0.07265222516214392,0.7716784746615238,32,36,70,66,3
0.00047250626190315794,0.0053071491777685,0.07877160066001011,0.8037586780219749,34,34,66,66,3
0.0004714244119307755,0.005628910203301639,0.07230002147363518,0.8386430395250543,30,30,71,70,3
0.00039270547981119693,0.005218200625844089,0.06259414812910218,0.7780306774936967,34,28,71,66,3
0.0004349922749626326,0.005348691656579836,0.05956112205144947,0.7619702966679096,30,26,72,66,3
0.0003816632466907425,0.004902151749596068,0.05124390850928685,0.6909869719360043,28,30,72,66,3
0.00036913603845678463,0.004390666565787915,0.05368087101820282,0.6942153263123216,30,30,69,65,3
0.0003629157531904848,0.004280242808966866,0.05195872725783716,0.6799578308850607,30,32,71,71,3
0.0004062470016182869,0.00476203929835501,0.05639480472755293,0.6968143964331289,26,30,69,73,3
0.00043504274331518155,0.004540227672540913,0.05719499647749521,0.668587007827576,32,36,70,68,3
0.0004469096502692583,0.004824355544140419,0.05549876500623766,0.6364640613248591,20,32,64,66,3
0.0004583172663990713,0.005434556302561554,0.061403995432541304,0.7272548702420959,28,30,65,61,3
0.0004092111122772409,0.004950541249000063,0.05605938733515368,0.7049547098695824,30,34,65,59,3
0.0004213670066943994,0.004986106523942946,0.055559711642302945,0.7462758976861198,30,30,62,65,3
0.0003998065299584081,0.00470439801459887,0.05614623814003463,0.7073129891048336,30,34,67,68,3
0.0004046161700775391,0.004431588501265765,0.05512772122799672,0.6524297405221607,30,36,61,64,3
0.0003922288664156878,0.004739894683169872,0.05504203885519573,0.6596120049432125,24,34,65,69,3
0.00037843204353267155,0.0045553084461504995,0.05361682955875535,0.6245870576963791,24,32,67,65,3
0.00036219272967043465,0.004725116152007533,0.052459876907818906,0.6732223062289566,30,28,67,64,3
0.0003492766373352778,0.004457780587484545,0.04934941181296838,0.6561811466276943,32,30,71,63,3
0.00035811582868056535,0.004195448612903363,0.049268270318316675,0.6605533593132001,30,34,68,69,3
0.00038507471503870875,0.004603652648026909,0.05029918666505793,0.6549832659742247,30,22,69,63,3
0.0003818246785130249,0.004702987024777415,0.0511890741143029,0.655051997209091,36,30,69,67,3
0.0003725505247939932,0.005088229472799095,0.05029758284402804,0.6646268877845757,30,30,74,61,3
0.00032269178097934614,0.0043297623979971465,0.047713096953141715,0.6059249487790122,30,28,79,63,3
0.0003349159219921945,0.004198736845875838,0.05121328336551772,0.6097739433707481,28,28,77,69,3
0.0003372657120106528,0.004085235681770968,0.047274901989661375,0.5708282859247693,30,30,77,66,3
0.0003243533361325666,0.0035665086808633305,0.04637421604927659,0.5177504303963102,30,38,77,73,3
0.0003521319927431497,0.003552901261561288,0.04544377835577122,0.5099706300282726,26,28,72,65,3
0.00033724496271367923,0.0037106932762126232,0.04361133850868324,0.4962394053046949,32,30,70,70,3
0.000341420057704639,0.0038013252874920436,0.048725343086536706,0.5492850327160193,36,32,61,65,3
0.0003089674984299416,0.0040054997658917875,0.0428576255692014,0.5337512740347254,28,30,65,63,3
0.0002805156072038493,0.003890017541142412,0.040327677117560565,0.5100205740622971,28,32,71,75,3
0.00028448613091889874,0.0039527709819997675,0.03930314578642085,0.5086719646043251,30,26,69,69,3
0.00026911779450455446,0.0037190027116864952,0.03786275499080011,0.5040450840451349,30,28,74,73,3
0.00032120113658729894,0.004235042212687565,0.044307991350512936,0.5673069470222067,30,28,65,71,3
0.00029779249866635974,0.003724121927292982,0.04492902695122462,0.5620953180189295,36,28,72,68,3
0.00029290011363636157,0.0033624504330900347,0.04241978196888646,0.5111012448809971,30,22,73,71,3
0.0005842256704501135,0.003699911153807729,0.05499725243803987,0.5226082980656638,16,30,64,75,3
0.0006061193338430105,0.0037349482887042533,0.054755015087184396,0.5229351731110646,12,28,65,71,3
0.0005698749853101518,0.003958591102784697,0.05880463842184831,0.5898657715546609,22,30,68,71,3
0.0003936710707110042,0.004812268223476671,0.059081454332294135,0.6899028653244056,30,32,73,64,3
0.0003729166922251477,0.004468999050419824,0.05701298982149078,0.7123366042007406,34,38,80,69,3
0.0004139438614539696,0.004565590097284933,0.06267948838057467,0.7235640379890836,36,42,78,68,3
0.0004030699747972058,0.004659814124371493,0.06208731551380752,0.7561636023553994,34,40,81,74,3
0.0004284369530072818,0.004826017905225802,0.06161506408962778,0.7733948146972562,30,36,74,74,3
0.0004549920037050495,0.004928866558331779,0.06717095726748006,0.7769679168724228,36,32,67,71,3
0.00015573563539271015,0.0003399298161410961,0.018096651540482327,0.04185450976728478,26,26,58,63,4
0.00014495750384408448,0.00039709035101539005,0.016629190894433425,0.04329298813529222,24,26,59,65,4
0.0001401754671236986,0.00040505521391747464,0.015121161477339265,0.04126788386323827,22,26,61,61,4
0.00013667237559035017,0.00037694838404804374,0.014878674851215867,0.04385480943218383,28,24,66,63,4
0.00014405714020655484,0.0004032646624417631,0.014513276627645563,0.04287774584623526,22,22,68,69,4
0.00016860145668526908,0.0003729731468957976,0.015874757806300162,0.04525999791529077,18,18,59,65,4
0.00014671945099139336,0.00037594929674303855,0.014940084289706224,0.041091129547021085,20,18,67,70,4
0.00014964193177434561,0.0003749209132810476,0.015044470812030997,0.040118207406128974,24,24,63,67,4
0.0001422227201194784,0.00040853260950888507,0.015035523319061878,0.038626557576888335,28,20,64,64,4
0.00014461537120097334,0.00039521604293129767,0.013998822375854295,0.038430727458598844,26,27,60,68,4
0.00015133872483874463,0.00039744362560000234,0.01442274298702483,0.037896601677125295,24,24,60,59,4
0.00014989411316482937,0.00038589544524769486,0.014005291274918698,0.04022841741023185,24,22,62,63,4
0.00014439899116587023,0.00037956618673840286,0.013362700442387665,0.03850376028504395,26,20,64,60,4
0.00014199960200008207,0.00035537731475298315,0.013552990646248155,0.03608718830516127,26,17,58,59,4
0.0001400274457126445,0.0003730362905563946,0.013780838592677943,0.03685330661035941,20,18,56,52,4
0.00013865099398275568,0.0003578186148930956,0.014153204200931016,0.03338914613930329,26,13,56,60,4
0.00012818764603501328,0.0003554730378955973,0.012561617028112912,0.03474355295319586,28,14,66,60,4
0.00013768248190111136,0.00038925348697342805,0.014369361058438201,0.036036097369802934,28,16,63,65,4
0.00013310676495887556,0.00032841274642039336,0.013667038834791114,0.03559971202385533,22,24,62,67,4
0.0001358091392051469,0.0003247453741665505,0.0131478826978177,0.034834751246988864,24,26,56,65,4
0.0001454314507903414,0.0003231754416185247,0.014118199915521839,0.03305002854245297,22,20,52,64,4
0.00014259048827610285,0.0003503200325964765,0.012884163115808738,0.03428209565958394,22,19,54,66,4
0.00014694717567662372,0.00034516981780339866,0.013244856101588416,0.033815832792465465,22,12,54,64,4
0.00014019439633439071,0.00032323948235333925,0.013296786079896636,0.03292199582387717,26,15,64,68,4
0.00012481525622362887,0.0003335951248986752,0.01181711013797433,0.03353601026904826,26,22,70,75,4
0.00014440669685528577,0.00032952913662111086,0.013963072451295144,0.03038147664173877,24,27,56,69,4
0.00013984909881714614,0.0002806152980872621,0.01335252982248438,0.02889579518720431,22,22,50,68,4
0.00031531243821045153,0.0006572617478548991,0.02247770500279976,0.05008290855144227,16,16,35,60,4
0.00034349461494752017,0.0011736340239167145,0.024394217819252703,0.07598982885474857,20,13,36,54,4
0.0003012424176206845,0.0011331560818147236,0.01991218735609701,0.07387039841448885,14,12,41,60,4
0.00018074492546418648,0.0008879858608515639,0.01327841150423812,0.06041696756788456,21,10,49,64,4
0.00015391042037812602,0.0008227798557485738,0.011099558841456286,0.05429433308219382,16,6,57,61,4
0.00012635617716594746,0.0003172634049879759,0.008708017007710865,0.02840942342905071,22,19,57,58,4
0.00014084382365920684,0.00028155917427001435,0.008848366310489526,0.02764910049613213,16,16,60,62,4
0.00013389406483339054,0.0002857156067673578,0.008840885910901368,0.025972403896474636,18,21,58,62,4
0.0001360874500470309,0.00026086447594388676,0.008858137997590443,0.025826095078556644,18,18,59,61,4
0.00013724701149778814,0.0002857032662242753,0.009453443377567494,0.026663793915680866,22,17,58,60,4
0.00013799626035152022,0.0002458711131914326,0.009466144110914758,0.024121926431420533,22,20,51,59,4
0.00013552757332098718,0.0002507433826734629,0.009464593466856531,0.023215739848623244,22,19,45,60,4
0.00013711075574333458,0.0002857272365213654,0.009369307624243092,0.022832017219781994,16,16,44,52,4
0.00013393854235452897,0.0002656611151397512,0.008866532957613225,0.02250077416611453,18,19,50,48,4
0.00013715865035026,0.000307977834990834,0.009460204035482032,0.02374547269829879,20,18,59,52,4
0.00014126105223663177,0.00027780697122744435,0.008790251818678029,0.02314824014678419,18,19,54,48,4
0.00014137818928407125,0.000270413447122655,0.009443576079694671,0.02429904541853709,28,16,58,54,4
0.00014411658712991287,0.0002504288679187198,0.009008097095972695,0.021934462887832618,20,23,55,59,4
0.00014071117123674382,0.00026312871803637743,0.008673616077521689,0.021994549240419478,22,26,52,66,4
0.00013718727260864409,0.0002479472005751106,0.008644168867859053,0.023045002121476147,18,27,58,66,4
0.00013988349451090742,0.000265873524453276,0.008726053750148325,0.02230019216235356,22,22,55,62,4
0.0007725921235537002,0.004865816253239021,0.12305870593792681,0.5928694436885013,42,24,82,57,0
0.0008420824410661284,0.005081418847399233,0.130289711600978,0.6183367751196787,36,26,76,52,0
0.0009109201653144189,0.005454032280796293,0.14049945723820018,0.6477382475738318,44,26,72,54,0
0.0009403431916715876,0.005321891075583373,0.1351695042435386,0.6544005144235812,34,24,67,56,0
0.0008238078177328243,0.005136615923562088,0.12347252414065393,0.6440551372470277,38,28,68,57,0
0.0008075241257604165,0.005031075764040917,0.12403467427975069,0.6230661726748697,36,26,77,55,0
0.0008176754646694669,0.004842092020241426,0.1239429149589035,0.6230451504506982,41,32,74,53,0
0.0008860323996899858,0.005162393513875803,0.1238918393633003,0.6071874409699725,38,26,83,53,0
0.0008495002130694509,0.005512989340204227,0.12785182712510929,0.5940705020571302,30,24,82,54,0
0.0008758200516532603,0.005367841125142445,0.1274897316938059,0.5978142151009709,24,24,73,52,0
0.0008598338014172361,0.004474514284027627,0.12390071420054206,0.5192510403213241,34,26,73,56,0
0.0009607053886938579,0.004341680227944615,0.1255712811141602,0.5411009459933772,32,28,69,57,0
0.0009099555344950317,0.004308095248562282,0.12355318082270686,0.5549480055197914,28,36,72,56,0
0.000838828063849183,0.004012112329263834,0.11937305007041613,0.5115277203342682,32,36,74,54,0
0.0009280117738046065,0.004659781537001963,0.12650335114757677,0.5684935936997378,28,28,76,53,0
0.0008756619081252365,0.004086320639131832,0.1353830302666611,0.5372091233488635,32,30,78,56,0
0.0008708971115609806,0.0044724216539887415,0.13287117457401154,0.5309575765583898,32,22,76,54,0
0.0008850155439965926,0.005177546910778518,0.1346532688740807,0.5997487751359307,32,20,75,52,0
0.0008504939958779979,0.004655060126107019,0.12062047370008248,0.5565089459409116,30,24,71,50,0
0.0007431247594405741,0.004607566253943057,0.11322690973332013,0.5616991219272017,28,24,77,53,0
0.0007150842861427336,0.004894355956549752,0.11212886198108152,0.5653148084958405,30,26,72,57,0
0.0006840353665130955,0.004060704986080647,0.10266151764153346,0.5034553354432041,32,34,74,60,0
0.0007777685299391686,0.004151094541145901,0.11123126081248554,0.5402441343554598,32,38,68,57,0
0.0008019093987123832,0.0037588737397831486,0.10924809729688276,0.48044863244663844,34,30,63,57,0
0.0008445620702846681,0.003467713173675341,0.11739729941071728,0.4151246308922245,36,26,63,59,0
0.0008868628868593506,0.004043129615032969,0.1212905696165759,0.46162445155015,32,22,70,56,0
0.0008638081698983347,0.0037925788988326225,0.12191917479106724,0.39778430191949044,32,26,70,57,0
0.0008635759813890889,0.0040113858118330644,0.12634542492118314,0.4554244637583902,28,26,74,55,0
0.0007643184116368074,0.004340660097993588,0.1177782458520339,0.47178223718082074,30,26,73,57,0
0.0008124738568247863,0.004191733221444197,0.11672924459758986,0.4353473694836092,28,24,71,54,0
0.0007280817048837961,0.004474732506978745,0.11016331805536152,0.4592163229287131,32,22,74,54,0
0.000742428499155383,0.00440299514253986,0.11292164161484866,0.44542183983239486,30,22,76,61,0
0.0006679435517268321,0.004460067661185368,0.1035803725779519,0.43252046989363824,34,18,77,57,0
0.000829127404876148,0.003983788461326016,0.11848105618716734,0.41608511787540536,26,18,70,57,0
0.0008873623054956642,0.003899933968895414,0.1158225290532752,0.42113591730778854,24,24,70,58,0
0.0008842626402438561,0.003366557098115347,0.11271041312463788,0.3745924608130783,22,24,68,57,0
0.0009158992225155178,0.0035437217656659825,0.11876565617616223,0.3968273543169663,20,24,69,60,0
0.0007720227406972279,0.0034324921659893465,0.10550260594784804,0.3940853104158488,24,28,70,57,0
0.0008346948194592789,0.0034455918467746066,0.11149464144347791,0.4050622120808654,24,30,72,55,0
0.0007959776930306274,0.0036627701683449036,0.10254706603326282,0.4239798430237002,28,26,64,51,0
0.0006747647827911331,0.003663672365660398,0.10397388217237395,0.43308273607605813,34,34,68,54,0
0.0006995330760057501,0.003819275908730193,0.10551405708586355,0.4494400510526421,38,32,65,54,0
0.0006833986722890823,0.003831070191239227,0.1062037181028457,0.433306418924737,40,28,70,55,0
0.000613640036991963,0.003602711696207265,0.10479109081993228,0.418168406352599,40,26,80,56,0
0.0006941707968730473,0.003788172536827014,0.10405890060256574,0.384421077624521,30,22,83,59,0
0.000732502017740196,0.003284003443744075,0.10671397241527392,0.35523776492702064,32,20,81,59,0
0.0007459393277382154,0.0032472360156495976,0.10608158327571855,0.34949388663826647,24,24,72,62,0
0.0007398751592945469,0.0034048740119383327,0.11299175213546431,0.36394050415141244,30,18,67,62,0
0.0007871406954772153,0.0036515475169369162,0.1226643074777546,0.36881847639747456,36,20,69,58,0
0.0029907245698189717,0.0016194040480822368,0.32480860005877976,0.26875266519080726,22,36,56,80,1
0.0033139338911866768,0.0016863686104970502,0.3502501466304793,0.27395694124342385,20,44,60,83,1
0.003103352301729976,0.0014149433723712754,0.32473364614394856,0.23001639104837443,22,46,58,82,1
0.003064388472705707,0.001570861313339607,0.2988664637371959,0.2405552371675175,22,44,61,76,1
0.003133488896885444,0.0015352592979120672,0.2991821405318637,0.24002092903824812,24,42,57,74,1
0.0030567088988805086,0.0017399117163103908,0.29700413499614803,0.25040533560058287,20,36,57,69,1
0.00314696903737178,0.0016945527277473383,0.30209925749853994,0.25464498581602557,24,32,55,70,1
0.002680011180390372,0.0015302359278940405,0.2909532894060799,0.24016564576654356,26,36,53,78,1
0.0029221468916554747,0.0015602995088621785,0.29934838822767973,0.22180213855729417,18,36,52,73,1
0.002975904833289156,0.0017547966225882163,0.3319076482665955,0.23839115511957565,26,26,58,75,1
0.0036255307955488096,0.0018355589030324756,0.38158617308036286,0.27786282904486137,28,22,53,82,1
0.003697296319657975,0.0020662649644117843,0.40085344249448435,0.31013265501996484,28,32,57,78,1
0.0037594635929238175,0.00238639918586117,0.3688250502006308,0.35525981001794693,28,28,55,80,1
0.0038028166637019,0.0026940138583849116,0.386996942973934,0.38122408614971287,24,30,55,72,1
0.003918942954935705,0.0024871292453344297,0.3816799210840773,0.3475016252182248,18,30,54,68,1
0.003924693280874834,0.0021670516788587168,0.3656694526731295,0.3134824138522094,16,32,61,79,1
0.0035638775359417563,0.002293768247395905,0.3699262401444987,0.30926844066635906,20,24,61,74,1
0.0035546147788330456,0.0021306451320454705,0.36192172096856184,0.27290708543695746,28,26,66,78,1
0.0033627276736177525,0.0020907278447948254,0.341460479069209,0.28130240606944273,24,26,63,75,1
0.0036950712015121146,0.0021388068494233754,0.36948883696598045,0.29198726289648314,22,24,62,74,1
0.003633654470387363,0.00199255822447241,0.34098366125550145,0.2743675802200157,20,28,63,74,1
0.0035405030983239887,0.001954556340671898,0.3294772656378206,0.27087995858952496,18,26,55,71,1
0.003254390993077868,0.0016711482941514219,0.3176883929178325,0.2464868609343098,24,34,52,75,1
0.002692470444640693,0.0016767120789255492,0.2918264508229415,0.2503416044928672,26,32,49,71,1
0.0027188895444613475,0.001682497203710377,0.28389863475317406,0.23403514002908476,28,34,57,74,1
0.0027799051253106204,0.0015110846360539818,0.27487024336375165,0.21887059976552853,16,28,57,78,1
0.002557914649127842,0.001633269561759035,0.26947499107168965,0.23881228108742383,20,32,59,72,1
0.0026037627594383507,0.0014789859919735581,0.2687037834672912,0.24090806463538217,22,34,62,77,1
0.002701488258009655,0.0017557286533254168,0.28538702613124567,0.24390016881047621,24,30,58,80,1
0.002590272994852441,0.0017451751569178453,0.2779098627998538,0.24391195802338966,24,22,57,80,1
0.0024844224381687947,0.0016209166203791597,0.2516743789464011,0.22599197921992534,22,24,63,84,1
0.0024352702080393668,0.0014403147520208482,0.24211527691494633,0.1958910364336687,22,18,64,84,1
0.002336283799914766,0.0015663437911672944,0.22700555373258502,0.20621351206893884,18,28,63,81,1
0.0025009579231664815,0.0014977862906235175,0.2424620740346844,0.20861232576261726,20,30,61,74,1
0.002303065201034206,0.0017485815560825762,0.2505491624549182,0.2199123084338301,24,28,57,75,1
0.002375123607670883,0.0016824337823054573,0.25632300094248006,0.23077550632894592,28,24,56,71,1
0.0022794955790895926,0.0017396346396507765,0.2620724319971735,0.24457185098251435,26,26,55,61,1
0.0023017699460385005,0.001759803510455655,0.2645668375420715,0.2636570187476452,24,28,61,59,1
0.0024938057011939323,0.0016512657483437512,0.2838017211158448,0.2689530723057208,26,28,60,71,1
0.002568108174529714,0.0016548117977696506,0.2817359351888928,0.24901827385765427,26,32,60,76,1
0.0026522711759625808,0.0016338738905185618,0.2964327356799045,0.23766874287248047,26,36,60,73,1
0.002441392131273896,0.0014751300956135787,0.2610981488932522,0.22159462545478523,28,36,59,79,1
0.002252433365061736,0.0015044073239517642,0.2597904669849317,0.19864883289928081,32,36,66,78,1
0.002855226700538612,0.0015776455972973274,0.3033771192844713,0.23365234769348858,30,34,63,74,1
0.002969342795615883,0.0016562360139823135,0.30656372451672537,0.23774417599382652,32,30,64,74,1
0.0029662232096489475,0.0017637336137393627,0.32807750331079333,0.26221731389434255,30,28,62,65,1
0.00313793861101584,0.001785719692015117,0.3319862176254472,0.2748533843876513,30,30,52,61,1
0.002940408771017795,0.0017105013329886322,0.3058389799444293,0.256893855933025,32,34,58,61,1
0.002670213713276256,0.001611546829197581,0.3040457454813938,0.24623191860856777,32,40,52,63,1
0.0014248241064155317,0.000501580459576163,0.21252432074484706,0.07407857511236215,38,26,67,75,2
0.0013945552589729696,0.00046717925047444855,0.21660782755549984,0.07562865786280701,40,30,67,79,2
0.001538270997593643,0.0004800861321035814,0.22630911561602313,0.0778604904771856,34,32,63,85,2
0.001443948367342386,0.0004799545287187741,0.21752218295703668,0.0784631798176072,32,32,67,81,2
0.0014025159651384913,0.0004919508331040872,0.2013382623043782,0.08080966983873322,32,30,62,80,2
0.0013229574481321339,0.00048593248559762554,0.19457759562334118,0.07943525255845425,30,34,64,84,2
0.0012276165906372817,0.0004643869842717424,0.1895747411769967,0.07734343420258821,36,28,65,88,2
0.001188521003934494,0.0004747758599317795,0.19219647097312,0.076500062358693,38,32,68,87,2
0.0011378644706594955,0.00044272423272638636,0.1999522641340173,0.07295329299766758,34,30,72,86,2
0.0014825905010024615,0.0004565975932899332,0.185558006758222,0.06361917923755789,24,26,71,74,2
0.0012287465592895363,0.0004463087059940245,0.13895080519852096,0.05597236693229679,20,32,62,68,2
0.0009876877271770136,0.0004267227606439066,0.08826504759640671,0.04399810093491359,12,20,50,64,2
0.00026557283951310486,0.0004996274116801256,0.023835967480064953,0.04032750946218231,21,13,52,56,2
0.0002592054208737359,0.0005388529782130468,0.025595307651256945,0.047883333928863195,20,14,56,59,2
0.00040889726945697076,0.0005808549557142638,0.040325676290476925,0.051935125411447985,21,16,59,59,2
0.0006633947433910841,0.0005234845527549378,0.07318872654053539,0.05400475667648534,24,24,53,63,2
0.0010266510164859191,0.00041872273906500555,0.10536780154118196,0.056002882213520795,15,26,54,73,2
0.0015888312715594236,0.00042373050625264065,0.16272992791516605,0.06281243120036532,22,34,58,80,2
0.0020473766774655364,0.0005049047593535019,0.2192436350439384,0.07320593290554954,22,30,58,83,2
0.00311404098559717,0.0006105300662320803,0.30970871765375163,0.0967956799366609,18,30,54,86,2
0.0033078334045351728,0.0006558536180871578,0.35870042020476495,0.11081239302982011,20,32,57,84,2
0.0031918293648143235,0.0007786000081926281,0.3765454455062268,0.13071484537153658,24,30,65,82,2
0.0030596541231232904,0.0007519508538207157,0.37882881427000414,0.13712848150604534,24,42,69,88,2
0.002458080670519415,0.0007944983317195526,0.37131464674027015,0.14145635087996974,36,40,68,82,2
0.00243126208461766,0.0008039968113403195,0.3751584642353657,0.14229377248058772,44,50,74,80,2
0.00227357243235017,0.0007033907396551037,0.38838739850755205,0.13300188658102036,44,48,83,81,2
0.0024159554501682586,0.0007189118160370299,0.3999319774932236,0.13425878812463463,40,48,81,76,2
0.0024866293259645945,0.0007125518291545207,0.38580535587310155,0.1274310296522482,34,48,78,83,2
0.0024325597900432478,0.000724795122445913,0.3717121056817886,0.13301134766382885,38,42,71,83,2
0.00245670645026246,0.0007079645617397776,0.3549639614231449,0.13046897312561023,36,44,65,84,2
0.002327465844806737,0.0006751743422732697,0.3361263029559398,0.12571284036948202,34,44,68,87,2
0.0020734254369231793,0.0006329838897956372,0.3004422523158393,0.11965532670864906,34,38,70,81,2
0.001971485781460777,0.0005934767334136757,0.30773894345350705,0.11376815362313344,32,38,70,83,2
0.0018222243245422031,0.0006081130262107609,0.28764731702593366,0.11429722501317226,38,40,75,82,2
0.0017908168306795063,0.0006122393491043119,0.27895461054721615,0.11281290477143538,32,46,73,78,2
0.0017177601637488765,0.0005718378142285741,0.2720717339273674,0.11291653994091368,34,44,72,79,2
0.0015678724555324556,0.0006048043095273613,0.252462611704423,0.10722652079293021,40,52,74,80,2
0.0013611559752706587,0.0005387391147239868,0.23224617180963342,0.09328521509033855,40,40,77,82,2
0.0014256351942316975,0.0005323796426216672,0.23135431204240006,0.08723214063422696,46,35,76,80,2
0.0013695737276617297,0.0005198021815985254,0.2187443519874952,0.08827131475424857,46,34,78,86,2
0.0015193629545813259,0.0005010383409109065,0.23628790422742652,0.08123416876428091,36,36,76,89,2
0.0015199636203874717,0.0005194411785339509,0.24053991758101842,0.08628853278573584,30,36,73,88,2
0.0014977383547025202,0.00045784518059202405,0.24080376139774126,0.08273412004179512,30,38,74,90,2
0.0016563625742210188,0.0004340505668423125,0.24439045019129157,0.0739442709508032,26,40,71,87,2
0.0013826569113161923,0.0004655258321514717,0.2110350056818108,0.07491151598179431,28,36,67,81,2
0.001356121505244347,0.000452656119893007,0.2055223906558202,0.07527286030432438,28,38,68,80,2
0.0012875851286313464,0.00045734126250610984,0.19613925878820937,0.07388088938610285,26,36,78,75,2
0.0012390099864886745,0.0004708439031216814,0.19944717985052546,0.07498477362188445,30,34,76,73,2
0.0012975670310269613,0.00043926262411078226,0.20800979728080965,0.07360745115678208,30,34,81,81,2
0.00032165164320786956,0.004006172482629947,0.05158574985420939,0.6427017906695027,32,34,77,63,3
0.0002636998805673279,0.004182085112925362,0.043140717336758456,0.6062618051936961,34,36,76,62,3
0.00030046756044705867,0.004528022928670342,0.04482671867022184,0.6341080945088313,32,32,71,60,3
0.00027461980139753214,0.003916657150543137,0.043735275005094026,0.5495200256692897,34,38,76,62,3
0.00031208139820307145,0.004313184231578508,0.045518991275630846,0.5848229374891047,32,34,75,60,3
0.0002865414475279892,0.0039837148514692295,0.04323872202376709,0.5704635406560328,32,36,78,68,3
0.00029194181426369015,0.003643850175642395,0.04359946303416739,0.5435166798436678,36,34,76,74,3
0.0002938692708417638,0.003932527079417286,0.04466571113448283,0.5612734174515049,34,30,71,72,3
0.00033713044130173104,0.004137097351754115,0.04474398605278709,0.5281784846464768,23,28,75,71,3
0.0003601184066682332,0.0030558684433192006,0.04363049708014294,0.4272007829846098,26,22,63,79,3
0.00034234606571116507,0.0028679965841964614,0.03644674159861105,0.34778105816294935,22,16,61,59,3
0.0002926814050646102,0.002364833805741332,0.0297132566366997,0.2841093237719603,20,20,63,64,3
0.00023312859040913422,0.002713587242128085,0.02275746546822954,0.2884546331628338,20,16,63,49,3
0.00026246219790984014,0.003591176646377354,0.037335326821398465,0.46684563399651013,33,26,70,62,3
0.0002982745733275652,0.004064074753255642,0.04736931920735421,0.5756247151194007,36,30,73,69,3
0.000376011934730173,0.004430567884777142,0.05715686449640655,0.6742921488887643,42,36,66,66,3
0.00039883112387872227,0.00453134728716156,0.06269432883407806,0.6903047360617464,34,34,65,71,3
0.0004079949035375376,0.004533534087226055,0.06081064844022113,0.6862861435901871,32,36,63,70,3
0.0004069457779404001,0.004571383000247047,0.05931889143287355,0.676054265838819,34,36,63,67,3
0.00047674500730700677,0.0048236218991577155,0.06212168512233592,0.6816091838062184,34,36,66,72,3
0.00041733792819034164,0.004485516798510024,0.06330311975467592,0.7175554913707431,36,34,73,74,3
0.0004203109834011139,0.00444059723087025,0.06276730418360457,0.7245451880929408,36,34,72,78,3
0.00043156443587565393,0.005081080579354286,0.06474611990492346,0.7876431176846183,34,38,75,73,3
0.0004017427741095866,0.00496292745650101,0.05680168620159745,0.7662212203539558,32,36,72,71,3
0.00037081539355979416,0.0047855330328155634,0.05157870535953353,0.7489180747971511,34,40,71,72,3
0.00037410584374669134,0.004786114874591119,0.052593760075063285,0.7252498944922142,38,36,76,71,3
0.00034249858253852024,0.0042881861615901755,0.04944203470201165,0.6701952157334489,44,36,67,75,3
0.0003136938825115154,0.004322129007677155,0.04716104380318277,0.6461713244378051,42,32,75,71,3
0.0003255971340506817,0.0038465072264889134,0.0455333300655121,0.6005698380639247,38,26,70,72,3
0.00029235132484875184,0.003498873105941769,0.04376313550315381,0.5599835088905686,36,34,70,72,3
0.0002761857879618877,0.0034434859093837237,0.04252638276836105,0.4967654985048216,32,32,72,74,3
0.00030433268533096937,0.0036368444296283583,0.046494850656706034,0.5563867620773997,32,34,73,70,3
0.00030143469324519194,0.0036728100195962524,0.04813064647139389,0.5532319361663668,36,34,76,76,3
0.0003151781228846981,0.0037018132381374034,0.04891996932150479,0.5776212369101672,40,36,79,77,3
0.00032757602251518795,0.00404504446358621,0.0488631973511524,0.6008774108021552,34,38,74,74,3
0.00030447815461170273,0.0035148157096880225,0.04617678145505284,0.5432777421926271,38,36,78,77,3
0.0002998178961073539,0.0034057233326891217,0.0455386137349165,0.516827256091513,34,28,78,79,3
0.0002828347394042982,0.003891703195311294,0.04394664604558663,0.5464126077840709,34,30,76,74,3
0.0003099728744267837,0.003956065131848654,0.046239241437707454,0.5597566523039408,36,32,75,71,3
0.00033363930690145997,0.004066292467106871,0.047192531870850145,0.5767275226670161,34,36,81,66,3
0.00034372821555730455,0.004199600741736382,0.045283356720482115,0.5954040648853758,30,32,77,63,3
0.00031000019137308665,0.003783822295479641,0.04197857423905643,0.530616800827378,28,34,77,64,3
0.0002770750335328056,0.00311657402690317,0.034381908468446985,0.4755366269400261,22,32,82,65,3
0.00024273144898538003,0.003096006429002299,0.03523308903157779,0.44827307425406937,30,34,77,62,3
0.000274701279706255,0.00333105520358614,0.03710676417209997,0.47343009987026885,32,36,75,69,3
0.0002839412204494657,0.003404654429901604,0.03562940873366355,0.5133587231920929,38,34,73,68,3
0.0002975043022002791,0.0032647845447312026,0.03710899162386001,0.507404623801134,30,32,72,71,3
0.0002536286069098334,0.0029548193477426715,0.03389946104934629,0.4780294796714631,35,34,72,78,3
0.0002787629768335932,0.002944502006242546,0.032834268684748764,0.43101889910852603,30,28,71,72,3
0.00023286907096930806,0.000737819071300112,0.02699322151941703,0.07257879675452243,28,20,61,53,4
0.0002348412026551101,0.0006474098088012754,0.024963295349628618,0.06425905019221377,24,18,56,58,4
0.00022773037128939134,0.0005320152409781502,0.023211794723122212,0.05782440036060597,24,20,62,60,4
0.00021824609090736365,0.00044119908832917327,0.02204371955541633,0.04810416205857594,26,20,66,63,4
0.00021980028500454094,0.00046611099928973353,0.021777524348292797,0.04216417621431301,24,14,54,64,4
0.0002137123323536443,0.00048616025740241787,0.021125556045143292,0.042204381948736436,22,18,54,60,4
0.0002056171967573063,0.00047032185214462347,0.02306647907225851,0.03741185818157948,24,16,53,69,4
0.00019272930783651506,0.0004998637080974508,0.021435431638313063,0.0435187917222345,26,18,50,61,4
0.00018044951688156723,0.00043413534112289967,0.01955819831619711,0.041520151970558646,22,16,52,62,4
0.00017608673848079837,0.0003611804690730192,0.021183018119118973,0.04067930614140358,30,24,66,64,4
0.00017897789757198611,0.00039025408347628625,0.019997265252483885,0.04392304288794509,26,30,62,67,4
0.00018345420491323338,0.00035732455471474924,0.02083457053955404,0.03855565038691789,26,26,61,65,4
0.0001907918053737587,0.0003661113380121244,0.022473616094598397,0.04262103435001416,28,24,54,68,4
0.00019186705302149678,0.000354406891323244,0.021289455306675566,0.04226141807038154,24,22,50,72,4
0.0002141805727562089,0.00035284757156011764,0.02373959798835867,0.03989536824358635,26,20,59,72,4
0.00021117094844950868,0.0004226502158950299,0.023133816189044615,0.04505179059876921,28,24,54,67,4
0.00020490325119165449,0.0004226091104977479,0.023862091089104337,0.042123662283273994,31,22,56,65,4
0.00019369540696647944,0.00042968813637656484,0.023243821131855857,0.04157460521065432,28,20,58,54,4
0.0003127172191318105,0.00044634676861884806,0.025601052921812598,0.04740990334351179,16,22,42,54,4
0.0003588288549319021,0.0005245385359051402,0.029376686604043606,0.049983036083801065,16,18,50,50,4
0.0003424017475259482,0.0005617253064869605,0.02477955823021231,0.04800944051134343,12,16,44,46,4
0.00024403748827419366,0.00044364132686959724,0.01816011871373612,0.03921503078183757,18,16,37,46,4
0.00017754037813725896,0.00039725722823208734,0.013984750644064113,0.029259677972626394,20,8,43,40,4
0.000105759639757536,0.00020334981909075642,0.007476544391078757,0.015299095118669776,18,18,44,47,4
0.00010532797571270952,0.0001874831466548862,0.0077890903692744,0.014067949544671462,22,24,40,48,4
0.00010543605406355735,0.00018928328920146534,0.007782700194544361,0.01435111247283256,24,24,46,52,4
0.0001065517281324397,0.0001991957528185824,0.007624097658842513,0.015538461328442138,18,16,48,60,4
0.00010719460564427754,0.00019739939553254724,0.007777809417275202,0.015609817285195126,24,22,46,48,4
0.00010752748244819414,0.0002107238204316992,0.00770247381710721,0.016401436752933464,20,18,40,48,4
0.00011074993140727775,0.00019774512398927069,0.007895226216905978,0.015894610362956276,22,20,40,58,4
0.00010898031759603743,0.00020380541683116306,0.007908856995594224,0.015299447877165882,18,20,46,54,4
0.00011149177330160284,0.0001853443636028914,0.007912852424393801,0.014221152979058104,20,22,42,54,4
0.00011255241710829539,0.00018313363445382507,0.007997811426750344,0.013714385830657124,22,18,50,58,4
0.00011713239171225397,0.00018623007230033028,0.007935740674804863,0.014341042550345713,20,20,41,50,4
0.00011462157902480271,0.0001819665670516397,0.008103497057953804,0.0136708530707155,24,18,44,50,4
0.00011462166480922616,0.00018274704477063092,0.007974671509980392,0.013750332654856598,22,20,46,52,4
0.00011303104999662116,0.00017815679431485847,0.007902692712534335,0.013307310695965049,25,16,46,50,4
0.00011402342277132327,0.00017639882251733457,0.007813199086291519,0.013554116815458414,20,20,38,51,4
0.00011753287594439688,0.00019287039396743608,0.007966901508512475,0.014493099442677744,21,18,44,56,4
0.00011534894287518551,0.00018822581991409466,0.00793641239167977,0.01405596329495596,20,16,46,60,4
0.00011927169977430574,0.00015956641023647127,0.008175908877457528,0.013496710410454497,21,24,48,60,4
0.00012074336338589267,0.00015554398980847312,0.007883936637716154,0.013129820762762843,18,17,44,63,4
0.00012118932757225333,0.00015275367178882912,0.007977491306052522,0.01282115983099734,21,18,34,62,4
0.00012293812796224885,0.00015548719452554424,0.008047603563544448,0.012591931259588863,20,20,40,60,4
0.00012711292704066523,0.00016823237419112094,0.008071884282099111,0.013134950914461008,23,16,32,52,4
0.00012591936300031622,0.0001676158451321783,0.008193697308881948,0.013289487164316776,18,20,40,56,4
0.000129301301057151,0.0001629584450302737,0.008325393594016342,0.013136844766457696,21,20,34,49,4
0.0001294926438868093,0.00017960365362711315,0.008331092339098262,0.014644590728661097,20,26,36,52,4
0.00013366045608314046,0.000161186024773928,0.008360989446184899,0.013913214183254995,19,26,39,55,4
0.0008677167898342604,0.00468374134416596,0.13878415543915767,0.6544356252885826,36,36,76,62,0
0.000854898582560533,0.004592215076564901,0.13896113171673427,0.6109359354177101,36,30,71,62,0
0.0008450972831967999,0.005095786408026723,0.13798400316920342,0.6355247382168179,36,32,73,60,0
0.0007927823739646947,0.004575609518193036,0.13269407847744574,0.5619769878309374,30,26,75,63,0
0.0007018991095356249,0.004658214465516241,0.12444328887451254,0.5137328890102653,40,22,76,62,0
0.0007434228326653272,0.004504445171081194,0.13232635537215956,0.5090111847657931,32,24,81,66,0
0.0007714775359885492,0.004168131778506734,0.13002690281839277,0.5121535623471875,38,24,75,66,0
0.0008920507877140619,0.004579849002191895,0.13707053397264757,0.5239763616280819,30,24,74,68,0
0.0009116633104257041,0.004286476304656267,0.13514560316315002,0.5169791961353448,28,26,76,66,0
0.0009563111340944174,0.003605396558069001,0.1313759799034239,0.494212147779716,30,26,71,72,0
0.0009337684977408006,0.003727093860515983,0.13860092659109916,0.47926365830569834,34,28,73,72,0
0.0008999799498925342,0.003784237387508978,0.13301008604330158,0.5109584532364104,24,32,76,68,0
0.0008519974581550567,0.004674567540050163,0.14090475953827625,0.5712378723787347,28,30,79,64,0
0.0008766132151908426,0.004819793567746198,0.13858333528814792,0.6236924186177033,30,26,81,64,0
0.000830461085514239,0.0051116291259482105,0.12092977964721521,0.6472313832891795,32,24,79,65,0
0.0008121853954151095,0.005200550042665358,0.1295001100876412,0.6328261842361015,32,30,78,60,0
0.0007923413790613878,0.004546990644145104,0.12609843146077565,0.5564681970695836,34,28,81,59,0
0.0007543224211628761,0.00416721509848531,0.12230387696155921,0.551884970042277,30,28,82,60,0
0.0008596188966406882,0.005077732871660536,0.12094284287544121,0.5813849266319123,30,26,81,52,0
0.0007989345346055154,0.005039851141782304,0.11790573685606613,0.6065320244379502,38,28,77,56,0
0.0007931915425124121,0.005392632232464429,0.1128973806845166,0.6223619679288173,36,28,77,53,0
0.0007624550737047836,0.005296733686672399,0.1154974403665839,0.6237804793049168,32,30,81,54,0
0.0007188032997139628,0.005221766707801976,0.11499217976539498,0.6182009718668527,40,30,81,55,0
0.0006852374112058359,0.005137284944250594,0.11068985855674666,0.5926713990867345,34,28,81,59,0
0.0026860324433027063,0.0017968644803520958,0.28753744166811174,0.29227657637480053,20,36,61,82,1
0.0033474005419392326,0.0018898538038857398,0.2950666531631977,0.3062029581639228,18,36,61,78,1
0.0035946750079308334,0.002103628792045741,0.312872987452891,0.3197755544697605,18,32,57,73,1
0.0037391939661280183,0.0018965913775168756,0.3336168646869848,0.33285192420434057,14,38,61,77,1
0.0034680238402479578,0.001955455563944611,0.31438710750855453,0.313019619809611,18,30,59,71,1
0.0034180010172851667,0.00180109330335708,0.32276468740727243,0.29565843321714014,22,28,60,76,1
0.0032708632613495446,0.0019246266710676067,0.32031914938718303,0.28698117864188166,20,30,60,76,1
0.003651596485968705,0.0018564193101370625,0.3386955723514419,0.277723114908633,18,30,55,78,1
0.003332860263635188,0.0017687633766553775,0.33212818410161693,0.27017198117361557,24,28,61,76,1
0.0033670882668244357,0.0018046176382979266,0.33462211767665434,0.2805541085661209,22,30,60,78,1
0.0031805615441234027,0.0017676397709462035,0.3184200164087129,0.2735112519592449,26,30,57,80,1
0.002910001253729622,0.001723639343680587,0.29873264923605125,0.2664091138088337,30,32,60,78,1
0.003173674040077885,0.0016614166421513984,0.3280023590596581,0.25959150459937236,22,34,51,66,1
0.0030639060480382894,0.0017365162546117648,0.3208563834139929,0.24915740762760719,24,36,61,67,1
0.0030696208772799227,0.0016752079716555834,0.31935192696716685,0.24844566575864777,20,36,60,75,1
0.0035239790027044226,0.0016726589957235833,0.3346016582469354,0.24167727034865139,24,38,60,77,1
0.0036799652385073535,0.0017845645563138376,0.31144498936190973,0.25810714938457924,10,32,52,75,1
0.0032916149099799664,0.0016133554582484632,0.3063812347617709,0.23558502857315441,16,38,49,74,1
0.003534313306841872,0.0016797497456193544,0.31018595991098513,0.2287358711373583,18,32,51,69,1
0.003247439139750854,0.0016059854811902113,0.299540648260836,0.23062031897451704,22,32,49,62,1
0.0024951973088299753,0.001475734921800095,0.2655158293088974,0.22351768353772958,26,32,48,65,1
0.002421377375360406,0.0014954696377698692,0.26577766569065914,0.23657903569749805,26,32,48,69,1
0.002398935673925302,0.0015880449537451187,0.28161579115371715,0.2538746720377995,34,28,50,73,1
0.0027279820333849297,0.0015698480946532687,0.30463199975608174,0.26155517000454315,24,36,54,81,1
0.0017724184360200972,0.0005729977224848237,0.17096291572433586,0.08906363456955445,18,28,58,83,2
0.0020940223174004953,0.0006494768217329153,0.22568380443599176,0.10268765339867501,26,24,53,83,2
0.002745845963710472,0.0007222200825938417,0.2754676513227157,0.1147098085118129,24,32,55,82,2
0.0030567428419461073,0.0008335083172168433,0.3149690212438083,0.12147828571302027,28,34,59,79,2
0.0033547095096070146,0.0007865662818158317,0.3505058027744995,0.1235183143139743,24,40,62,77,2
0.0028539899212647467,0.0007185095659560806,0.3308417088202918,0.1245380709040915,28,48,66,88,2
0.002652643964751493,0.0007332677724795527,0.32291523361997493,0.12299987283325133,32,44,63,85,2
0.0028997514902840086,0.0006416298498576607,0.3263955612889061,0.10777961294919884,28,44,63,88,2
0.00231141481383422,0.000619196317819909,0.3038041464538766,0.10966673835283058,32,40,67,90,2
0.0022419907730141125,0.0006332991236955389,0.31484342562510803,0.10906295425623587,40,44,62,84,2
0.0019810078338390012,0.0005762480402189593,0.29612050107756477,0.10681134162664614,44,46,64,85,2
0.0018599295935139723,0.0005875432309743031,0.2633995300935734,0.10461912784507556,36,48,66,81,2
0.0017702880664052204,0.0005778438430915251,0.26950947738734493,0.10337633720351133,38,44,66,88,2
0.0016011207776124709,0.0005589812464698855,0.2584570371196974,0.10115862809059192,38,40,65,86,2
0.001684569084690649,0.0005033392136799826,0.2546188749126201,0.09061531554560061,36,36,63,84,2
0.0016708638304302411,0.000502352476378439,0.2686170527509556,0.0887271159125325,32,36,67,87,2
0.0015227070892701775,0.0004538735260147753,0.2374779167840257,0.08338179272396913,40,36,67,83,2
0.001446279496364482,0.00042323604431774024,0.21327227178389999,0.08028296257725702,40,38,66,85,2
0.001317528656943057,0.0004853965182933053,0.20759104148405888,0.08669239857818872,32,38,72,85,2
0.0015595940938492282,0.0005022963370375486,0.21361103738258028,0.08868201350889886,24,52,76,82,2
0.001445177527027033,0.0004997019269889345,0.23794996893557693,0.09215304831138454,34,44,69,86,2
0.0015034234491207203,0.0004782882340937683,0.23595901488026005,0.08644673562310914,36,40,71,83,2
0.0015418912394135752,0.00046724111092785606,0.23034707636954227,0.07880534588657237,32,34,67,81,2
0.001601725296159737,0.0004324980512125026,0.2258635294987546,0.07827522836548297,32,30,65,78,2
0.0004852633345974986,0.005457660754825092,0.06792262888172201,0.8600661466388789,34,32,68,68,3
0.0005121697932376655,0.005460533652160624,0.07207813285053802,0.8548008696874048,36,34,60,68,3
0.0004897976623816078,0.006054224171683673,0.06872234904361395,0.8807673841286839,36,34,65,71,3
0.00043562299219719006,0.005448134028885723,0.062170375769053425,0.8240445798559869,32,38,65,70,3
0.0004087253716606349,0.005383477687040462,0.05923336416856916,0.8047010784944227,40,34,66,73,3
0.00037621313233162696,0.005421140747020255,0.05619185896226986,0.8261252366889388,36,38,71,71,3
0.0003393501349207163,0.005465513934165528,0.05356321602222114,0.8447624757578195,40,38,72,68,3
0.0003937324059282262,0.006316196733934667,0.060831505676932886,0.9920846049557767,38,38,73,69,3
0.0004171390666429394,0.005746807624688332,0.06352206555093168,0.9153045232669229,42,38,68,68,3
0.0004156784186507544,0.006088880526619206,0.06320248983301177,0.9269367869910244,38,34,71,67,3
0.0004214885679383074,0.005682601363457067,0.06597052517736757,0.9119968154609686,36,30,72,72,3
0.00041491653966291975,0.005445340244906544,0.06362343488245846,0.8000770900036318,34,32,77,77,3
0.0004250287854767175,0.00569470898421207,0.06277421175069925,0.8655164697097834,34,32,71,75,3
0.00040613840399782365,0.005530858495305668,0.06633214630935597,0.8513933812933869,38,38,74,81,3
0.0004386379573901257,0.006099454822853309,0.06629209711817438,0.8566965558525559,38,26,76,75,3
0.00038847456086443864,0.005448904080635548,0.06281149639996077,0.8222269018261061,34,28,75,74,3
0.0003973575757675847,0.005576088651762089,0.06159821542238991,0.8344605323731427,30,24,77,78,3
0.00039012144700798374,0.005518495155165166,0.059050494293328475,0.8051676336000679,38,30,74,77,3
0.0004022658865278035,0.004693327480487733,0.055314193455117976,0.7443917791143355,38,32,76,75,3
0.0003786214991824856,0.004716215889282553,0.053121149392668404,0.7520545877058233,32,36,75,74,3
0.00036306387680600525,0.004465664313806287,0.054054225693446964,0.6693615501607776,34,32,73,71,3
0.00038152731757217347,0.0044326693623737735,0.05575316226743142,0.6386778490607534,36,30,72,67,3
0.0003734809601591779,0.003972409480880934,0.05450240621308414,0.6033291249871013,34,36,75,72,3
0.0003605822207704179,0.004447380330227812,0.0560928230045509,0.6562042076266887,28,30,77,67,3
0.00013506795415169133,0.00026633126126280856,0.008184437693705995,0.02219902488550442,18,27,44,63,4
0.00013190855992590032,0.0002692466903803337,0.008462600694827013,0.022217223458966606,20,24,52,59,4
0.00013078635113645594,0.0002602678248554258,0.008410643314929491,0.02258258899387965,18,27,43,55,4
0.00013262655212679456,0.00026584185861983626,0.008451257822884686,0.023237445296099345,16,24,47,51,4
0.00012831430694680224,0.00030102603065931474,0.008363656270742741,0.024902688153996932,20,19,50,44,4
0.0001290721121748195,0.00029557300372556823,0.008306924574818023,0.02534661132910072,20,12,56,55,4
0.00012903240004777375,0.00028151370697166925,0.008426122985956876,0.02327077836630267,22,12,49,63,4
0.00013134752116103994,0.0003014464079298853,0.008848674496263129,0.02435680954190363,20,12,56,57,4
0.00013430473661507728,0.0002830232919480052,0.008881059381596421,0.023214529013120034,20,15,54,62,4
0.00013328815381607732,0.0002581940351877034,0.008544068534213127,0.021746343089990836,20,18,53,56,4
0.00043152664207367965,0.0007136493169648106,0.02632137204297989,0.048856801879669155,3,7,75,72,4
0.0005341665149929317,0.0008331736909998619,0.030641984074184215,0.052864579578664306,6,6,54,55,4
0.0010763653068957657,0.0018911273481966157,0.060688854692847315,0.11619208655646004,6,6,78,56,4
0.0011300405806763541,0.0021904582038082114,0.06444511887265147,0.13866320112127214,6,10,47,48,4
0.0008342687663357228,0.0018727797140158501,0.048630519896493855,0.1278466762987049,6,12,48,49,4
0.0002566722663296904,0.0011123984754167243,0.023341335143608023,0.10121339013024372,22,16,60,54,4
0.00030911553032342216,0.0011957241286912831,0.033554344402396206,0.10276631552004668,20,14,63,53,4
0.0003100557293205306,0.001168075281417367,0.03303434617237953,0.10002787057278069,22,20,65,50,4
0.0003488276235293373,0.001166418009503934,0.03957160835760084,0.09902870909785769,24,14,61,47,4
0.0003060291239279455,0.0009978985218679127,0.035605296364273155,0.07906466636207453,24,14,64,51,4
0.0002744932232791658,0.0010114812393901282,0.02992743800122026,0.08167903048938506,22,16,64,50,4
0.00024597121710549026,0.0008888568605219434,0.03077032283842535,0.07236294081250905,24,16,63,52,4
0.00024112255478152378,0.0008831386387490323,0.026941697508430607,0.0720834203758222,28,14,59,54,4
0.00023256704319794287,0.0008476551454114441,0.026863701702835287,0.07735093531421335,30,18,54,51,4
