f1ch1,f1ch2,f2ch1,f2ch2,f3ch1,f3ch2,f4ch1,f4ch2,Category
0.005905586686866791,0.0048081569471974984,0.5978886204976334,0.5325991924376496,28,20,60,69,0
0.006277471439169385,0.0049401643606217125,0.6453059929317314,0.5910748381754327,24,30,63,62,0
0.006578820398308972,0.005097073462136663,0.658501569097434,0.5979891210129294,22,28,59,62,0
0.006853440957802017,0.004672652249016525,0.6669012780595617,0.648822499854604,26,28,59,65,0
0.006145391213706074,0.005493614097320572,0.6394861487061183,0.7627060063817304,20,28,64,66,0
0.0059259922890999425,0.005455090310760257,0.625863752754126,0.8216074996669904,22,28,68,68,0
0.005995650079231965,0.00693383982245863,0.6180026202724798,0.9005440639796154,22,34,63,68,0
0.006443456701413148,0.006573044524139978,0.6471781749026557,0.8783090105182365,20,32,65,71,0
0.006046984826937707,0.005647507554876684,0.6481844551750302,0.8051852544797043,22,36,61,71,0
0.0071267219385348435,0.006636759267651652,0.6860619799504379,0.8820052597345299,22,32,57,70,0
0.007334456085391284,0.0061639337546149815,0.7575621331081159,0.8266610453959142,20,28,58,73,0
0.007271167724752548,0.005902834898900008,0.7668684810727187,0.8236824310125835,26,34,59,73,0
0.007455824274344244,0.006185196621050592,0.76408021406221,0.8287793638508526,22,30,59,72,0
0.007044681899092439,0.005421051779745132,0.778003164635919,0.7448238176119291,24,30,67,73,0
0.006623886187056552,0.005232721101802348,0.7545476194841804,0.7213152307986873,22,30,62,76,0
0.006900773061846666,0.0047484815372744625,0.7303510413823354,0.672397631765504,22,26,64,77,0
0.006479791765906886,0.005059946773722177,0.7159624770273454,0.7352014447406069,22,30,68,74,0
0.006273295931081308,0.0057218253468376504,0.7197430632177644,0.8045597340230922,20,28,61,69,0
0.006601302259722979,0.004757578363942248,0.7192067169613606,0.7698982969857512,22,30,60,70,0
0.00618908767559645,0.005424533040204655,0.7369738567696845,0.7928010630639167,26,34,60,66,0
0.0057964352557916465,0.004699291655426938,0.7292660127029454,0.6778187669499238,32,36,65,65,0
0.00653895546761755,0.004161777853074131,0.7468067223011143,0.5953892029969946,32,30,62,65,0
0.006311267366579374,0.004339274075101902,0.7601359925426392,0.6242799334578187,28,30,59,63,0
0.006092379206009413,0.004553377227304382,0.7276745690419739,0.6106049617891111,24,24,65,61,0
0.006520254747193679,0.005450922507834316,0.7705538243707072,0.669477474484612,24,26,71,54,0
0.005949614659847062,0.005862434660166876,0.6993687653523277,0.7193423268886455,24,28,72,58,0
0.005941574322113963,0.0052165063430049475,0.7180243415624415,0.669758181279088,24,24,68,65,0
0.005893674936506074,0.0053494827029989915,0.7161857589770592,0.7166094485789545,28,28,71,72,0
0.005707150902480369,0.005496699760342187,0.6866549739733425,0.6772858422932984,26,22,68,72,0
0.0070847568045431355,0.004760336738565662,0.7296124585822737,0.5676590785598465,24,24,64,73,0
0.006183242714232713,0.004480048065086718,0.6796301869327055,0.5868362504464582,22,18,69,71,0
0.006601649303654362,0.0038628928183115506,0.7266906816459866,0.49231978806548043,26,26,60,74,0
0.006803760595831725,0.003516467660270526,0.7410634737810927,0.44010084605360644,24,24,55,72,0
0.006219921510763662,0.0038101939442078503,0.698277041807413,0.473201909379596,30,26,52,75,0
0.006387007571288195,0.004179804108338634,0.6996660940637334,0.5057796829546091,26,30,62,64,0
0.006307124146412939,0.003937906056945471,0.6639298068186777,0.528928591730979,24,30,63,63,0
0.004967061982503223,0.004101358609307303,0.6061679955425371,0.5711118997346225,26,32,71,60,0
0.005768007417610677,0.004082444777172898,0.6655760373281469,0.5383880530790456,18,26,65,65,0
0.005880835070700884,0.0037626808898231817,0.6459081042274704,0.49332333375551063,16,26,67,72,0
0.005387868696657227,0.003147798042086255,0.6039159249325571,0.4236661918829441,16,20,61,78,0
0.006011144455294247,0.0026940976628901585,0.582150879734094,0.3695769905954267,20,32,58,78,0
0.0052983817768002305,0.0032790406639049345,0.538176691199197,0.4430738688465047,20,30,68,76,0
0.0053366266352650495,0.004034283334606969,0.5138217024882377,0.56071516925604,18,24,73,71,0
0.007084242628395513,0.004660901561135767,0.6278843307550002,0.6283444657552417,18,34,67,74,0
0.00713178812892507,0.004618421986887284,0.6888734818007715,0.6204139985182325,26,30,66,80,0
0.007135804699626023,0.004074780258370693,0.6082832744459309,0.5522293315814666,24,30,65,77,0
0.006843358018194849,0.0034067405087619134,0.5658533405361021,0.4766702369925559,26,36,65,77,0
0.006233326056878061,0.0032593779703262394,0.5328043041770607,0.4831900952227024,24,32,65,74,0
0.0014623515873538994,0.0008136564034663862,0.15950954041790574,0.10319705444317998,22,24,72,79,1
0.0015991807041742247,0.0015131961165968171,0.20414634806544643,0.19574216903560013,28,20,69,76,1
0.002225337058735009,0.0020474929293001773,0.24571043573991558,0.27249618410657866,22,28,70,74,1
0.003842122267988578,0.002735391184973013,0.32873632017282994,0.3417982654272686,14,34,64,64,1
0.004278973463539782,0.003224538901665703,0.3425587156647764,0.4351810381324156,12,36,70,67,1
0.0048327795942411525,0.003519936015026582,0.4268986413838788,0.4603881524370833,18,28,68,69,1
0.004897324730151545,0.003826205186201833,0.4825713690666296,0.5367054404075651,20,26,72,70,1
0.004087967006739021,0.004418874394321103,0.462506885969518,0.6246186999495089,22,20,76,70,1
0.005981977720499858,0.0043537822900908815,0.5453303705604392,0.6498200099292419,20,26,69,76,1
0.006378189827771638,0.004106006749297213,0.5515890838110497,0.6185444458034339,18,30,69,82,1
0.007351488363272242,0.00385507520714783,0.5699975635698289,0.5966637300616974,18,32,67,74,1
0.007794290569674642,0.003569135178448583,0.6114949181399773,0.5573394726864817,16,36,57,77,1
0.006701758600348746,0.0032141986011747325,0.5886845761612479,0.4922807000102538,22,36,56,71,1
0.005659201381430032,0.0037656012960962898,0.5354184622027179,0.5503635956454765,22,34,64,69,1
0.005798196522864738,0.00363579088606442,0.5609943748451777,0.5051568109167015,18,34,56,74,1
0.006048674974788216,0.003479975360386752,0.6078064667795983,0.4673330635110883,22,24,56,82,1
0.0060475764292876625,0.003768840807056417,0.5802336552591907,0.5040589046563582,20,30,58,72,1
0.005695290538231974,0.003176705549949073,0.6263752663754433,0.4645104938131219,18,28,58,79,1
0.007085067544789969,0.003255149587897216,0.6472617945056003,0.4806916884585993,20,30,57,77,1
0.006755998452804857,0.003906496896130303,0.6189879996391778,0.5276734432125396,20,36,55,69,1
0.0070613686641827645,0.00380578580388307,0.6637413634760745,0.5529098237883683,22,32,53,75,1
0.006938413831651954,0.004034450408635247,0.6399728604166733,0.5769887550000652,20,26,51,75,1
0.005634939053201977,0.004150985998312174,0.6064535692713093,0.5843030949053961,26,24,52,71,1
0.00601873011412195,0.003675763638038526,0.6194661025885775,0.5583370806539988,28,28,56,66,1
0.0063132197455985275,0.003651875499903717,0.6358387820312401,0.5401353965504608,24,36,55,66,1
0.006171640655770238,0.0032775052698981967,0.6355311728419819,0.48935220776167654,26,36,56,66,1
0.005888616384771679,0.002962702845080464,0.5824350007011105,0.46394635260812517,28,38,60,74,1
0.005479172046141956,0.003035419602868073,0.5544086843575265,0.45476511689931054,24,38,56,70,1
0.0051474504593127645,0.002952219279033269,0.5509572901309412,0.4333838577255883,28,34,56,72,1
0.005362747409531884,0.0029965936194563158,0.5199702724531813,0.4586543216272334,26,38,52,74,1
0.005003286942379682,0.0028607291493504693,0.5083568159800318,0.4460071096538421,22,36,55,68,1
0.005196588612074676,0.002456896203406866,0.45262623971909954,0.4092984810330247,18,32,58,74,1
0.004523638599942169,0.0023462507350609204,0.42933869946439274,0.38737814160454864,20,26,54,78,1
0.004560288285399377,0.002399256567065497,0.4601532230186572,0.35665792375626554,20,32,58,75,1
0.004408715677383047,0.0030202052014415863,0.43742614059856644,0.3711147299789116,20,30,48,76,1
0.004573190988217265,0.002801223415875937,0.48727116925631125,0.3546406084074941,30,28,47,73,1
0.004414909239564917,0.0026717599866207258,0.4650421610608593,0.3676333834443172,24,30,55,73,1
0.004215348675541904,0.0024940158683601633,0.44171928412006195,0.3700320927985059,22,34,56,77,1
0.003990430143785702,0.002359475150417505,0.4356030883424964,0.3779293428304442,26,38,57,74,1
0.003916204559330165,0.002597315872866964,0.39445528193252666,0.4046161019808792,28,38,61,70,1
0.005087818296182026,0.003298306119146942,0.44904613090123546,0.4615788521132981,28,30,66,62,1
0.005250545445693689,0.004442954690539751,0.4885060462984145,0.6036642758454195,30,32,61,61,1
0.006714579055402636,0.004838472494172259,0.5941763865981333,0.6483198081908973,20,32,62,64,1
0.007056535627578588,0.005208360223028603,0.6317955671085544,0.7039243719070505,22,32,54,74,1
0.0056935153877738474,0.004813778050086168,0.604958136457939,0.6830446444794772,26,32,55,75,1
0.005540503537073514,0.004571839652970952,0.5923899438520078,0.5998226243034399,30,24,57,75,1
0.0059306625599384434,0.004466034035009454,0.5594837831556569,0.5699372049837447,30,26,54,67,1
0.005782896368491585,0.005137416988329876,0.551716658020671,0.6271084550106247,28,26,58,60,1
0.0020115700217612957,0.004060592694211962,0.20159717140651642,0.5766416605294437,20,26,56,71,2
0.00198859052317263,0.004637772614684096,0.22025901043804458,0.6762337072486487,20,30,69,74,2
0.001629430522176658,0.00488070807453236,0.24216120092657517,0.7012174293336736,36,36,75,74,2
0.001503214370102462,0.003970050979174125,0.26051158822336706,0.6519726824521692,42,40,86,75,2
0.001534788697685832,0.0037389675946221668,0.2891311375955751,0.6090273090894579,46,42,93,81,2
0.00169526164886465,0.0034184329968510196,0.33319454159136397,0.5670740184522606,52,36,97,82,2
0.0018929587220792984,0.003666147733935031,0.3498885316279113,0.6312639930867057,46,28,93,89,2
0.002071441672039788,0.0033465027273236274,0.34558190206316525,0.5821004737701376,40,34,87,87,2
0.00238794499121955,0.0028929969855765398,0.34538005509312597,0.560848662862486,38,28,81,89,2
0.002904806019867625,0.0032060525919356177,0.3400420930158813,0.5747204721092586,20,30,79,89,2
0.003361558516609689,0.002630224935009528,0.3302740300123422,0.4749235876080999,20,30,74,92,2
0.0037650518034613267,0.002657013931675946,0.35822211740234483,0.47334099816536285,22,40,73,95,2
0.0034959902106212405,0.0025484431476826153,0.35442676782535415,0.491467860169257,22,42,75,97,2
0.003147490635518652,0.002526044465598233,0.3296595285580886,0.4956529984683908,18,42,82,97,2
0.0034821814018862487,0.002701756896929328,0.3704828156218312,0.47466240680050964,24,38,74,101,2
0.003573042477502719,0.0028216324083253567,0.3797305280970495,0.5068557770860418,22,38,71,95,2
0.00545776400906152,0.003067431538108659,0.4729122319232426,0.516506939133298,16,38,48,91,2
0.0072071979921113005,0.0032942590212341966,0.6164681213982208,0.5527954514841675,12,38,47,87,2
0.008888868081608037,0.0033795631594938243,0.6138182589952678,0.5518137588880316,12,34,47,87,2
0.008002317658602293,0.0029265899512598854,0.5629142293430407,0.49665556035506775,10,32,47,90,2
0.00669823965167487,0.0026893294971968044,0.4812583725332547,0.4484095331562899,6,34,62,89,2
0.0049850975894632134,0.0022492008192578,0.3551787066756894,0.3778164380625278,16,34,66,92,2
0.004170577645626604,0.0023122797532481266,0.34941000522956017,0.3723359088348325,14,36,71,89,2
0.004210152664699634,0.00220979492470516,0.35595326641260755,0.3846099718391919,16,40,73,86,2
0.0040979234752519895,0.0020544458470872257,0.3513568402980042,0.38562636228623015,16,44,77,86,2
0.0039390608548675295,0.002025296277520967,0.3405104264663005,0.3660298132925529,16,44,76,86,2
0.0036583828636728814,0.002122556927224316,0.3125849137338225,0.3514011249296192,16,36,75,92,2
0.003071812033619132,0.0019285706362734403,0.2892911508339273,0.34140381558087113,22,36,76,90,2
0.002867399558706524,0.0018852070148226618,0.2844386302223058,0.3229709620226751,20,34,67,85,2
0.002888677875944652,0.0017599054412438051,0.29361453875886406,0.33575364814870756,26,48,70,87,2
0.0033167056881695323,0.001812878071123189,0.3090176952511328,0.34402867774775964,24,50,74,90,2
0.003563170479821923,0.0017486345301700873,0.37139674156602875,0.3331011403728942,26,46,70,88,2
0.004097826674303787,0.00186773876165266,0.4127215232232116,0.3591062631523587,22,44,71,80,2
0.004795351621763633,0.0020584320121034513,0.4706124062825762,0.3804176944383062,20,36,69,81,2
0.005039623232116975,0.0020336038862883935,0.511078304049413,0.3784389198073415,20,38,71,78,2
0.005186569225237565,0.0023703050040224374,0.5245761369204481,0.4105037646579719,16,30,69,75,2
0.004316066759851505,0.002500112097382646,0.47321098328807204,0.3974990553223894,20,30,68,78,2
0.004700925658150875,0.002426905431281039,0.4607647393960504,0.3923628778678628,14,38,65,78,2
0.005746970052985293,0.002448820034333459,0.47658234577356884,0.37020696507606193,16,34,67,81,2
0.00501390169958774,0.0017054766867371416,0.36612335770018484,0.2575775620282545,14,36,58,87,2
0.0041625328169301624,0.0012488119714972386,0.2937018768914649,0.1767522311957776,10,20,53,87,2
0.0027075895401986604,0.0005423436052556486,0.17748590782313983,0.07815576299448206,10,8,60,72,2
0.0005781789412477357,0.00022385904360123653,0.05601506929308438,0.026226051655476722,19,20,54,73,2
0.0007614013954939811,0.0005312531574472791,0.0734309389332344,0.07910430220206932,12,16,52,75,2
0.0009956772285873155,0.0013102671005894276,0.08966164850794994,0.14916713101726706,20,17,58,71,2
0.0012045230485573616,0.0022847779890993064,0.10886092984909809,0.27418321148731695,18,20,69,72,2
0.001793618039263754,0.003159599230789736,0.15881302264991595,0.41141986537547076,12,24,65,79,2
0.0021053143284533956,0.004098932074326959,0.18610882203006215,0.4971237467029442,16,26,75,73,2
0.0012210908920513726,0.0001271996844994286,0.17247893123861263,0.019922858225665675,24,18,66,94,3
0.0019403081814912731,0.0002635062883613519,0.2560475578121904,0.04617869206951682,24,22,65,83,3
0.0025743503220682245,0.0005301946306728824,0.35741661687318477,0.09597049670979069,26,30,69,78,3
0.004049008486093709,0.0011976738840905597,0.47899100631972663,0.1481750823232104,18,26,75,69,3
0.004768374806185315,0.0014651014890188596,0.5859378462639963,0.18283630695732522,26,26,78,70,3
0.005221697991654113,0.001880690507211166,0.6767316653589378,0.2256500769734028,28,30,73,64,3
0.005619880971017949,0.001803242962151983,0.708199774363319,0.20763902997243006,28,28,71,58,3
0.00484798142663625,0.0013662185289276805,0.7253085971402369,0.19424503178410857,32,30,74,64,3
0.00524334728684434,0.0013042401855510128,0.7973404558861144,0.19348313955850371,30,32,77,70,3
0.005406239492172585,0.0010429794236060626,0.8048639634653326,0.1623278929177717,34,32,79,75,3
0.0055627793104511165,0.0009828416474431754,0.8447160268965038,0.155586892197758,28,36,79,76,3
0.00606897676662928,0.0009873348382622743,0.8808764697310459,0.15046317097776848,34,38,71,78,3
0.00551021736335516,0.0010259628114582232,0.824371106634109,0.15171448105598936,30,34,74,77,3
0.005272946407872713,0.0009392023764878567,0.8368112164140881,0.14757563824159395,32,42,73,81,3
0.006376348221252282,0.001043984691638654,0.8684862946431396,0.1682578225451574,24,40,74,74,3
0.007208586868782917,0.001059310929473616,0.8993146698589531,0.17253275626286146,28,44,74,76,3
0.00685343561087912,0.001037616461657926,0.8575919263592181,0.16711871636554376,28,40,72,82,3
0.007165339188635514,0.001062180994883233,0.8242207385934023,0.17508097679704265,22,40,76,80,3
0.005900890816032298,0.0010213440197527684,0.781528291452376,0.16320259610252214,26,38,75,85,3
0.006311466440461301,0.0012830068894481828,0.802401312011337,0.17563383612458333,26,28,72,75,3
0.006875388160253416,0.001126892285348627,0.894448377009877,0.16755562589416695,24,36,69,77,3
0.007415149619003898,0.0011740128047662314,0.9886664273092973,0.16527754109639972,32,36,72,75,3
0.007347466058835871,0.0012354775159542045,1.0062964504796135,0.15647118365041754,32,32,73,74,3
0.0064041810734195535,0.0011931193850565757,0.9583183710626736,0.1473496958702813,36,34,74,75,3
0.005694187569350754,0.0010960815685385685,0.8343167889753356,0.1381815812900264,32,30,74,77,3
0.005213753397595901,0.0010474223834316392,0.7361872488363546,0.12957393151430283,34,24,76,77,3
0.005080187981674366,0.0008481394908100997,0.7577199852868677,0.12168164730484042,34,28,75,79,3
0.0050421965012636735,0.0007918908186939588,0.818002363367116,0.110112943018718,40,26,71,80,3
0.0050131562278899955,0.0009128937374457915,0.8252070659595623,0.11526898857401195,42,28,73,78,3
0.004768649181594564,0.0008979015528764035,0.8199966161719476,0.11817109886979296,42,28,74,74,3
0.005501305005240379,0.0009582210093962339,0.8644892363155041,0.12875439234440517,38,24,80,76,3
0.005528885704797288,0.0010028154372400389,0.7837645680331913,0.13576129540989543,34,30,75,71,3
0.006308970513845869,0.0009542462920701198,0.8760675112361911,0.1328234019984111,26,28,73,75,3
0.006626210831965363,0.0009237882212917636,0.8998610913978287,0.12404763311637042,24,32,74,73,3
0.005798340706172387,0.0009292519042618193,0.8485020027667837,0.10907033018457032,26,32,73,83,3
0.006321552178488767,0.0008277544977284244,0.9062248233732749,0.10710155368458738,32,32,76,81,3
0.005546086112609778,0.0008111307331142709,0.8580015563687404,0.1074870321329537,26,32,83,79,3
0.005304083940953013,0.0008114452982467399,0.8777225987966244,0.11190164979856777,32,28,84,80,3
0.0057501020603843885,0.0007985102728193695,0.9063101615749939,0.12274598818904682,30,36,76,82,3
0.004853510407759719,0.0008976497591477222,0.6966205959752583,0.10985349518759427,26,24,71,85,3
0.003963457283731767,0.0007577005352761027,0.5258615646289557,0.08702331013132018,16,20,73,88,3
0.0033819536099643677,0.000712081378172904,0.42839156006102846,0.08369965913160247,20,26,66,81,3
0.002871135444791072,0.0004019701242084158,0.35062000860960424,0.07041384989074044,18,26,68,73,3
0.004229268511270954,0.0007010775393949263,0.5665662206212264,0.1040209866209904,26,30,66,78,3
0.005736725083399237,0.0009257414799990179,0.7962722338935192,0.13524260900633597,34,32,72,81,3
0.005995973310523678,0.0009482295581343461,0.9115680336627561,0.13345178350859682,42,36,81,82,3
0.006006910595327078,0.000986380466514195,0.9617034739846481,0.12886796108141063,42,30,80,85,3
0.0062227065425360575,0.0008406267591050154,0.9880569652974193,0.12162396064359804,38,30,78,85,3
0.0006033522948986812,6.044167130735769e-05,0.06880251587090976,0.009357698635158443,20,40,65,91,4
0.0006287323273600278,6.748286082803688e-05,0.07705457428485767,0.009538016021701963,26,34,68,84,4
0.0004920291154606767,5.867309910044128e-05,0.06568863780843205,0.009019803589008519,28,32,71,90,4
0.0006852503163294792,6.509524416243342e-05,0.07640387294516206,0.009862989931487468,22,32,64,86,4
0.0005776744093570487,5.885371604594674e-05,0.07400644995808943,0.009303311852328638,26,26,70,89,4
0.0005744316435919883,5.350865297360153e-05,0.06743865473645072,0.009022567656534343,24,30,70,99,4
0.0006379335765580021,5.7361627567456154e-05,0.06790409711999684,0.008904313085428541,26,34,70,99,4
0.00044794447035730685,4.128026751046254e-05,0.05143037158933878,0.007211496436685623,22,34,69,108,4
0.0004534389172019778,4.8722413499863844e-05,0.05938171533308443,0.008338532286497865,26,32,73,106,4
0.0004622905788153044,5.192938630583985e-05,0.06107749936174342,0.008004214272805602,28,30,73,101,4
0.0004229314565575578,5.0622641729871456e-05,0.05884929885379123,0.00791537671371518,24,34,80,90,4
0.0004657725464490201,5.456400025419228e-05,0.06146206997306652,0.008118639946412029,24,28,69,82,4
0.0004719866528484453,5.3514412263884106e-05,0.05767137176117917,0.007672261407092223,30,34,55,84,4
0.0004810228510907584,5.5049387967250714e-05,0.054831644312914096,0.00774162331564369,24,36,53,86,4
0.0004427975563600289,5.2421681880599516e-05,0.050263844558706444,0.007671739379347941,24,40,57,85,4
0.00043374751820417917,5.0960391130249215e-05,0.04966109250005632,0.007516325627582348,28,34,63,86,4
0.0004412259406473491,5.000853406486397e-05,0.048862020658328176,0.007287954651151427,22,34,64,84,4
0.0004656133965234251,5.539435826778438e-05,0.05232318774566054,0.007643390035061756,26,38,56,89,4
0.0005184064266811033,6.171023274742304e-05,0.0562097794172415,0.007988513454506725,26,30,61,87,4
0.0005340091204547644,5.592731202126131e-05,0.05907681796425928,0.008127089695405815,22,36,68,88,4
0.0005035871098604483,5.5579568976321276e-05,0.05631727768839603,0.008137111397501126,24,34,70,87,4
0.00044752521078534333,5.933089033779826e-05,0.0483870342719589,0.00806133092942156,20,26,68,84,4
0.0004946273595288384,5.507317453122685e-05,0.053169452561481687,0.008167416536051403,26,32,69,86,4
0.0005002446726904388,5.271088177652929e-05,0.05049334918531513,0.007800283928014424,26,32,66,83,4
0.0005033998886520934,4.986874877744822e-05,0.056544085041239624,0.007631198029546754,24,38,61,89,4
0.0005270577894741003,4.5591547571259634e-05,0.058781718870767496,0.007647800634090286,24,36,69,91,4
0.0005101609308242257,4.3779354199968694e-05,0.053242317320780885,0.006916450862047728,22,42,62,85,4
0.000630182898099543,8.24677656739804e-05,0.055221879630447473,0.008938166733960562,20,18,70,93,4
0.0008771646112519177,9.983345199855408e-05,0.07201341195567061,0.012430277691467114,12,22,69,96,4
0.0008904818966953109,0.00012148947189959163,0.07935765278027679,0.015314107629459795,14,22,62,90,4
0.0008053373495767208,0.00018045545132630865,0.09127279973535847,0.025683746207266222,24,24,65,86,4
0.0008265653709234397,0.00022762169418581412,0.09828708870078519,0.029868681384612423,26,28,65,68,4
0.0006847255679900247,0.0002538039772070455,0.09036173036675439,0.030328591443235513,30,20,63,67,4
0.0007889484975210387,0.0002626149088868797,0.10059306182086468,0.03188500973516088,26,20,67,62,4
0.0008378372787692414,0.00023366962043563615,0.10146845903837863,0.030117150431520585,24,28,64,64,4
0.0009150226474790921,0.00027786650915314297,0.11048665476644881,0.035193146681112286,28,20,57,68,4
0.0009258375890927263,0.0002568082931464093,0.11450261622924715,0.03761139553978741,32,30,60,74,4
0.000921000435168421,0.00026795213363494904,0.1070814943571377,0.041898182152256776,28,32,63,81,4
0.0008271681473987386,0.00022426805725154732,0.09940706351637138,0.037001058404444884,26,30,62,83,4
0.0006712287246669889,0.00014421308193943703,0.08467672987664862,0.027741470468776043,24,28,68,86,4
0.0005719588760028149,0.00011571622277066722,0.06871657014991817,0.021570694628725712,20,26,75,89,4
0.0005045908008899068,9.114523633984553e-05,0.05703230524417767,0.018071993147819057,24,38,75,86,4
0.00040468689405024906,7.398281872888898e-05,0.05152560334313257,0.014270161169325153,24,32,67,94,4
0.000403459300182981,6.677165426862696e-05,0.05077892159273043,0.013486284004520323,22,28,65,99,4
0.0004165255603483685,6.586906746871864e-05,0.0525564775099214,0.013159977855634542,30,30,60,93,4
0.00038705454292852,4.750849450711084e-05,0.048499217508713555,0.008893709910190891,26,38,59,98,4
0.0004090707590814556,5.284513240656735e-05,0.052229670446155785,0.009371597926206919,32,38,68,94,4
0.00037958960756474835,6.069787231001675e-05,0.04920677708296267,0.010160517463722884,28,42,71,83,4
0.004279743714793532,0.0022921420279203267,0.39729646858683376,0.3366612234567763,22,26,49,69,0
0.004474286080437578,0.0023931599200495714,0.37808364527165267,0.34440021782587477,22,24,53,66,0
0.004544077499666676,0.002446653715274751,0.39064073934338556,0.3281679971608469,24,24,57,67,0
0.00452262245393387,0.002600708208198281,0.4049579419971639,0.3058532148906758,22,16,64,68,0
0.0036198329543841432,0.0024167897390644576,0.3728808531223439,0.32253035871848873,26,28,72,69,0
0.0030530410920508568,0.002505647678235821,0.3727104058258962,0.31075205271217304,24,28,68,70,0
0.0034617688328313734,0.002709292945719261,0.3852573657845017,0.31974390275962916,28,18,64,77,0
0.0030230292272934887,0.002905034957064167,0.35880006889812655,0.3307240800774679,31,20,66,76,0
0.003094279905753912,0.002673512151328766,0.38692773071523,0.32512986502847896,28,20,68,65,0
0.002802997039237906,0.002136903126531322,0.33248480184247275,0.26209953274854075,24,20,57,61,0
0.0023830943857956802,0.0013761273989859489,0.2775904801368225,0.1846171487987118,22,23,59,66,0
0.0026196255775008796,0.0007527081478615477,0.25914542914374267,0.12713297073609922,15,30,55,73,0
0.0020805333588928433,0.0005812360570502449,0.20997703199430925,0.11704254728249368,14,36,60,86,0
0.003629528389047085,0.001079331821458447,0.31369578876084936,0.1942182784558135,17,36,59,92,0
0.004960532370485811,0.0016666189373933044,0.44266460581107897,0.28131235798140625,22,32,57,88,0
0.006237629466735473,0.002316593029804899,0.5526068780237319,0.35181765855422825,24,30,57,83,0
0.006968493668321582,0.0026880158029877516,0.6239903403090007,0.3962123099340259,22,34,52,71,0
0.007211762405391852,0.0028076660544739257,0.6864719675045399,0.40460310812329664,22,28,48,78,0
0.0073823869053193155,0.0028986978550830174,0.6658213599083517,0.3928588771765174,20,28,58,75,0
0.007560720010786607,0.003319427437234673,0.64584870655318,0.4639526100058067,20,28,58,72,0
0.008012247668205569,0.003390264651453575,0.7298233624440884,0.47309642610840835,20,24,55,79,0
0.008158721121820155,0.003439340742335851,0.7162954333188124,0.5126268215570563,28,32,60,78,0
0.007835641911343883,0.003909975746781891,0.7118079747403147,0.571881602563412,26,32,61,78,0
0.007644336272463594,0.0033557517086834497,0.7063498910187269,0.4893079721812153,30,30,58,80,0
0.0071304160181922946,0.003631402253142206,0.6366291260167021,0.486919040817399,26,28,59,83,0
0.006302136868534134,0.003866703341266846,0.5766207683331167,0.4930678371153855,26,34,62,83,0
0.006176539893265102,0.003483231699330588,0.5829689201318153,0.44302986973893654,24,38,63,83,0
0.007076800551926074,0.0043158967292609,0.6074642485701949,0.5003538220986326,22,38,61,79,0
0.0067827819447696235,0.004959592144570082,0.5861846558430623,0.5679408208247658,22,38,61,75,0
0.006884850054727546,0.0056698616444434925,0.6762607247917329,0.6479172788853803,18,30,59,68,0
0.006947444800126957,0.006379171740616999,0.6854608495294268,0.7905767104843939,20,30,58,64,0
0.006642702277357454,0.005869238388046064,0.7308191901871479,0.8104909020220655,20,30,62,65,0
0.007044859133850029,0.005990092678947116,0.7661642391652406,0.8047708616462648,24,32,55,65,0
0.0066661260634333745,0.006169644670430425,0.740080300099692,0.7891824523930382,22,28,58,67,0
0.007473688465885014,0.005156673453688244,0.7824824701449874,0.6797883056515869,22,30,51,63,0
0.006650026382067952,0.005624019082833803,0.6912750858258211,0.7075026397242815,22,26,60,61,0
0.0070088578685350116,0.004976621229840009,0.7252106916973454,0.6528020990132514,22,22,56,66,0
0.006545203471615033,0.0044212304615695195,0.6934405696557159,0.5999622856818569,20,26,52,70,0
0.0063817951467382015,0.004584718974958223,0.665422552113828,0.6451021429195894,20,26,60,74,0
0.0077075363231046586,0.004494470875100028,0.719511157106221,0.6138038660260238,22,26,55,74,0
0.0067385642344747676,0.004567209530342738,0.6478867416712576,0.6314262924797497,22,24,58,70,0
0.00652899222389558,0.004389766266759256,0.6226010261586983,0.627270557672592,24,28,54,71,0
0.006565785267120473,0.003804750684450907,0.620559944362907,0.5281054867259084,26,30,55,69,0
0.005751346474806816,0.003154363696887277,0.5585828496996045,0.4698487405043135,18,38,52,75,0
0.005761977241041534,0.003233912060946852,0.5468671691153817,0.4501437444832967,20,38,55,68,0
0.006059246973136351,0.00296059673344789,0.5119784961660933,0.3993927780931788,20,30,66,67,0
0.005165861936751286,0.0028113353626655147,0.5035535707936641,0.39456751733227724,22,30,67,71,0
0.005885910727522585,0.003098918729339497,0.5884125813207783,0.4208176159737197,24,28,65,73,0
0.006094742090483727,0.0032505842672594675,0.6045713081794614,0.4027533401237098,20,22,64,75,0
0.0032684692524742156,0.002672038134686857,0.42484028325602313,0.4016872886540867,28,36,74,81,1
0.002892039470408293,0.002686743768664376,0.3728255949165402,0.3970587537193351,28,40,73,79,1
0.0033686982021227086,0.002874130234571628,0.37635592886260444,0.4453947868816662,22,36,66,72,1
0.0027368707528471277,0.0032136165652231017,0.3309034626916161,0.4654153962062497,24,32,73,70,1
0.002600147477270638,0.0033897245576481037,0.30088444154135036,0.47763917675922185,28,26,74,66,1
0.0025653956932475525,0.003886591428712236,0.3163521762588254,0.4852364576523975,32,24,66,69,1
0.002794893308892132,0.0032078623878305733,0.3261907381137761,0.4450060723947377,26,22,66,70,1
0.0028083143441742986,0.0025988743728602203,0.3399992842057954,0.3746715725544174,26,22,64,69,1
0.0028280346890688164,0.002799099876549893,0.35264519610575523,0.3931131933261184,26,24,63,78,1
0.0024860969636407147,0.0020135247163025564,0.30973462194723667,0.3045764154628845,18,24,67,81,1
0.0024607568068013945,0.0017819938035758703,0.29334172675751136,0.2663482554164375,20,22,70,76,1
0.0027065230675667935,0.001865925179458184,0.2881199285056229,0.26765186550942643,18,24,62,81,1
0.002682966389927445,0.0017421539227582745,0.2943910486559253,0.20700180372439503,12,29,63,76,1
0.0029981956829886374,0.002116613211630493,0.3457227933373813,0.2668984992711869,20,26,67,78,1
0.0034578735077806437,0.0022891439554237098,0.3824361323792534,0.3090980119578019,18,40,61,76,1
0.0037846544139119903,0.0028815886569943266,0.40684987879220963,0.3389920611951464,24,26,67,71,1
0.004029585630428611,0.003309160178703363,0.4480883667774477,0.383028905790753,22,24,63,75,1
0.0038126455475581706,0.003474341022000481,0.4361535839040712,0.4004117382178245,22,24,63,74,1
0.0037413087675753024,0.003491736321266336,0.45941615725158813,0.3945915849967027,26,24,68,72,1
0.003906824505936331,0.0034511685128241027,0.4882609592470985,0.4111792254254732,28,26,63,67,1
0.0037173234885296775,0.00292267280859739,0.4891642993780786,0.38660948647488197,30,32,70,68,1
0.003990654058549855,0.002923110361286222,0.5188086677521,0.4112007493501412,32,36,65,63,1
0.0036551408808489076,0.0031358453492902265,0.4835946651192647,0.45279918768350513,28,34,72,61,1
0.0033911199231694716,0.0036719616269810644,0.4644770238047791,0.5018510827377809,30,34,70,59,1
0.0035637043487940063,0.0038342242391865324,0.44553487992589813,0.512569316676845,30,26,67,66,1
0.004378055275974155,0.003493498598252724,0.4770322425369408,0.4793585043314537,26,26,70,74,1
0.004339792918069881,0.003305164887160075,0.4859431903527364,0.45530185878960067,22,32,71,80,1
0.004293735950923714,0.003390992219785411,0.46647426239814366,0.4619491348198412,22,26,73,73,1
0.004019048060154467,0.0033236334398342353,0.43615602990150953,0.45616382989072,16,30,72,70,1
0.003281418737530003,0.003691356236894915,0.36615220319613495,0.49638577703059555,20,26,73,70,1
0.0032043853688008663,0.0035191759834512465,0.35285838917356704,0.47964446934891086,22,24,70,70,1
0.003585301721887089,0.0031547076535255445,0.35543183092504643,0.46504292004952735,22,26,68,72,1
0.0032520490056960967,0.003430293919416982,0.3354637524239882,0.4940894060449365,24,24,69,69,1
0.0036945850892744127,0.003287068480860215,0.37029471318898033,0.48433497814841986,20,24,65,68,1
0.003798271356551872,0.0034647132704553603,0.4159165109850676,0.5152389228203889,22,24,67,74,1
0.003638360529049362,0.0035013359027449603,0.4235867088775807,0.5116830777179907,18,26,71,74,1
0.0035243765865548672,0.0031428986616205907,0.42552320366378704,0.4519816388178217,22,28,69,78,1
0.0034221220466647494,0.0028674934163164267,0.4601750170677805,0.43080626656879634,30,32,74,86,1
0.003602446294446627,0.002822627497163341,0.4024934119286384,0.40916622670757113,22,30,75,78,1
0.0035315587874187697,0.0024780128438840927,0.39600004448122256,0.3618789415810205,20,36,70,80,1
0.004401844710070412,0.00277636433395195,0.4990213630848918,0.38897772996358465,26,30,65,78,1
0.0044411416902184605,0.0030136904513034628,0.4555487260857337,0.41475133985431195,26,36,60,73,1
0.0038700669998245835,0.003167930131549503,0.4675806073403397,0.40692372371757424,24,34,64,70,1
0.00395851118950046,0.003177118363651154,0.4730824375020821,0.4140753811787839,22,28,59,68,1
0.0028459291864754393,0.002859383487817518,0.38060842584601956,0.39988897487510766,26,30,73,70,1
0.0030065821287930776,0.0026624705000165404,0.3565843895166391,0.3601574943626015,24,28,69,70,1
0.0028298776732388745,0.002542628783058577,0.35350779880760985,0.36681868798009226,34,36,71,72,1
0.0028935721541965454,0.002427301765369078,0.34336961563706814,0.34699681788333336,34,28,73,71,1
0.002996273971273863,0.0022896507019128844,0.3172069524651714,0.33775542407589765,30,36,70,73,1
0.0039826690423490855,0.0020678926380876864,0.37446424431999203,0.3490108907711395,20,32,59,84,2
0.004233310533219089,0.001923109181535056,0.3783965442535217,0.32639990147668907,18,34,58,83,2
0.004636670201517529,0.001879774387400795,0.4193543294687289,0.33277283601991015,20,42,56,84,2
0.004402528088901893,0.0016634235163447844,0.3647979058284612,0.2992425319449839,22,36,53,82,2
0.005107325067495722,0.001946973348140746,0.38478154005887866,0.3085107696076527,15,34,60,80,2
0.005450942523426487,0.001836820145298297,0.40747855188288423,0.31465193079935094,18,40,55,90,2
0.0059161942933210745,0.0019973846439293418,0.4175526158433186,0.3354976837571735,14,38,53,88,2
0.0066773938990999015,0.002183863376049115,0.46023750095592625,0.34275624650008735,10,40,50,88,2
0.006071360932167095,0.001994270121608867,0.46126335499720994,0.3284771713209702,18,38,49,91,2
0.005123591511554266,0.002246452790373914,0.4031091261658856,0.3339441143178738,14,38,52,84,2
0.0042909756768928446,0.0023459372491170835,0.3661210634177735,0.37778157943981805,16,36,58,86,2
0.003879719144709588,0.0028606154470720087,0.36997210771956685,0.4531915859484119,22,36,53,82,2
0.0032509799516852607,0.0032910218427538635,0.31089344315046447,0.545746337195316,18,40,63,83,2
0.003311400805288441,0.0034783096498587768,0.3520905137774671,0.572076091491262,22,36,63,83,2
0.003756583985314897,0.0032419537202948144,0.4068508166043545,0.5026195109455903,16,32,63,88,2
0.004498321940756768,0.0025791381463742187,0.480071331598592,0.45035146585473024,16,38,68,91,2
0.00561646563561808,0.002135090451922545,0.5479874456550378,0.3656777671876438,20,40,66,91,2
0.005959611193581172,0.0018292030216119262,0.5792841436158007,0.3487975686592401,20,46,62,93,2
0.006048240499943542,0.0016946263556428523,0.5912770833252057,0.32717710182169174,20,42,63,95,2
0.005149496833417532,0.0014717496252918442,0.5174580534034334,0.289708748545214,16,32,62,89,2
0.004119129106681557,0.0015258474834725394,0.44483916104361765,0.2813440359702928,16,32,70,94,2
0.003442000462852291,0.001199822096173795,0.39317968240453377,0.24834069392961858,16,40,63,93,2
0.003645148031839678,0.0012412277679845472,0.3770887025472948,0.2525984555994446,18,40,66,94,2
0.003529754214844699,0.001275074569139473,0.37528726077779834,0.26433453225958015,20,44,62,95,2
0.005174084747246971,0.0013280930170913635,0.4437205772823265,0.2631175567681476,16,46,53,97,2
0.005161890282229194,0.0015100758258967313,0.4863750661949611,0.258705456554069,16,38,55,93,2
0.006838212973197671,0.0015781156611730182,0.5650694128373445,0.25537775108967103,16,38,41,92,2
0.0071711962365083246,0.001484826792390589,0.5913926043172484,0.2427575805869656,16,34,44,94,2
0.005815844656611887,0.001359244148718383,0.5034427586406379,0.23686233012218094,16,36,52,88,2
0.006674851944959525,0.0011091026617093855,0.5568281788584017,0.22530346507937987,14,36,55,93,2
0.005945764498369077,0.0010416396641360216,0.5376122710205795,0.20637109531621253,22,38,60,94,2
0.005248113891678379,0.0009560143600762205,0.5073865153855828,0.19524331913380585,22,38,67,93,2
0.005857576934188257,0.0008921545978051915,0.5243025089304966,0.17285982803291,20,34,59,95,2
0.00491643360040914,0.000904015823161017,0.4627102414103209,0.16241342810826298,26,38,58,93,2
0.004241370599701214,0.0009306919937845589,0.3859089564885171,0.16278492445342962,22,38,59,92,2
0.005128546509335648,0.000813275753672391,0.4132031133143661,0.14774307089454997,20,40,54,100,2
0.004383920965496082,0.0008550428085696362,0.3772967710243358,0.15782375154982778,24,44,55,97,2
0.003563035492728248,0.000876217571092152,0.3566144480235546,0.1647589926629245,26,38,59,93,2
0.004568212453084853,0.0009253047960345372,0.36883454162411533,0.16194699562236095,18,34,56,94,2
0.0036535068132000042,0.0009634051591267415,0.32200703651505774,0.16247459499114864,18,38,56,93,2
0.004567300031710019,0.0009205688125335929,0.37522136803739553,0.16029127526677753,16,34,49,94,2
0.005210671773138533,0.0009378653196689718,0.40200605657257893,0.1600035151637999,12,32,48,94,2
0.0045548744388452175,0.0008199577919269023,0.3844573987146377,0.14806170902889718,16,42,53,87,2
0.004500431572490349,0.0008506305994758511,0.40872556612917094,0.15506169903596392,16,38,50,89,2
0.0038221743655672195,0.0008533427109575136,0.3561152662426018,0.15132189297395762,20,44,53,86,2
0.003228450231326682,0.0007669878362710472,0.32215355419758823,0.13690194023171817,24,38,61,82,2
0.0032533497886572606,0.0009002398666343046,0.32738899003071514,0.147126259217399,18,38,58,74,2
0.002715954488710934,0.0008686217176538723,0.2766200393878352,0.1324447809965274,22,34,62,80,2
0.0024477052354319904,0.0008915424847390301,0.25212166951659715,0.13198782747684104,24,36,61,76,2
0.005341991812929368,0.0008339849752834014,0.8843654060950576,0.13596194788652058,38,36,75,73,3
0.005034311218810157,0.0007881496075508748,0.8143540847240691,0.12324071165246357,32,38,82,74,3
0.0047851262702089505,0.000705590490173497,0.7297843826747707,0.10836400766921045,36,34,74,76,3
0.004302792437013905,0.000669380010536597,0.7322464707772778,0.10379059743409341,42,40,80,90,3
0.004181299197487492,0.0005775799708184737,0.7056783905331336,0.09630901458998375,40,38,82,90,3
0.004743121299116925,0.0006200258367380514,0.7579799530035031,0.10002625627970699,36,36,79,94,3
0.004589710948670081,0.0006372471209631441,0.7475922517152714,0.09911412622298962,46,32,81,95,3
0.00483044535970327,0.000662374064090697,0.7494035745526634,0.09445577149003222,40,32,76,95,3
0.004689252104830332,0.0006903511176259699,0.7100666738215767,0.09381880326738003,30,32,74,86,3
0.004162376314550293,0.0009304872930583376,0.6301845125320411,0.09233572950463491,32,22,70,75,3
0.004101331802619323,0.0008849321830560018,0.5660555299026977,0.08908728796650965,28,22,68,71,3
0.004712259975991079,0.0009642725981761239,0.5080523245906386,0.10213033914132524,24,22,71,69,3
0.0054774697797467554,0.0007890191231982313,0.6097537328310064,0.10045975900321416,26,26,66,66,3
0.00618260033354932,0.0008220935765868854,0.719976838157867,0.12071589311884288,30,34,67,72,3
0.006469640999113395,0.0008520113873702692,0.7853557139031118,0.1266979858600997,28,40,67,75,3
0.005996820206159117,0.0008331081243013526,0.8040473989032189,0.1293225828182595,28,40,75,85,3
0.004986004906118089,0.0008100498155330006,0.7534621346610967,0.13663004814060728,34,44,75,86,3
0.0051775203153809676,0.0008130622445398129,0.7633794032963439,0.1326466168237922,32,36,77,85,3
0.005201905603359691,0.000784177740470672,0.8093697008487544,0.1298751548048558,30,34,82,81,3
0.005507065028575846,0.0007064300213804006,0.8723073667722672,0.1151849837549422,32,36,79,82,3
0.005308934546262277,0.0005916071499041943,0.8515377592506187,0.0952360491878827,36,36,76,84,3
0.005242557427694798,0.0005690204203200301,0.8532011796393902,0.10030146965925246,38,36,84,85,3
0.005159173174280139,0.0006023765078469077,0.835901017529134,0.09676087324698873,44,34,84,75,3
0.004999413899349666,0.0006114301648237894,0.8907717838234649,0.10144643160164611,42,36,82,72,3
0.005530228717777216,0.0007305064132549052,0.9349138504401168,0.11364678725226336,38,36,82,73,3
0.005285806445377778,0.0006911836281184706,0.9346771457657251,0.10586598701581641,38,34,81,80,3
0.005072124428795044,0.0006493813445305916,0.9261298483473579,0.10496667752708673,42,32,80,84,3
0.004836798692193263,0.0006609379909829998,0.877157253648336,0.10165199444884832,40,34,84,80,3
0.004785492033607248,0.0005590647342055392,0.8163318312536092,0.09311299346096716,36,44,86,83,3
0.004578728553911334,0.0005321445238151558,0.7937628133960268,0.09169073521710323,36,42,84,83,3
0.004819262404825297,0.0006103618010244142,0.7736481576203351,0.09895061485121279,32,36,82,84,3
0.005102193523446823,0.000641654956757223,0.7669056926469354,0.10085868226927264,36,32,77,83,3
0.005518539960013138,0.0006613305985007524,0.8129803162121497,0.10666274817262604,30,40,72,88,3
0.005410808645090467,0.0006243592172910119,0.8030117460058552,0.10526494225958102,32,48,77,83,3
0.005001701301919123,0.0005526986142900009,0.7688772669208204,0.09602255506272513,40,50,74,86,3
0.004780119946956914,0.0005041953223472481,0.7401206654764483,0.09319327231134938,30,48,73,85,3
0.004219843676643174,0.0005057679039666156,0.6725542942218545,0.08811907741646549,34,50,73,80,3
0.004054699600904689,0.0005148328919530994,0.7453209912320441,0.09214341704719888,40,48,79,83,3
0.004445657529791505,0.000564009669566368,0.7960103910022082,0.09683583051693287,34,40,79,89,3
0.004664115497401149,0.0005347642044169339,0.8002336864434696,0.09515429741426154,36,46,79,86,3
0.004552411580196807,0.0006155561042568367,0.8163915617502839,0.10130948085783051,36,38,84,91,3
0.004564139716893776,0.0005855646460793483,0.7173148946049626,0.09425274003845359,34,38,83,86,3
0.004269403445379259,0.0005427809664984194,0.7025894203841121,0.09491398661740937,38,36,82,91,3
0.003881625167132104,0.0005344923648629221,0.6355601588645726,0.08927300288631318,34,36,80,89,3
0.003784666834833452,0.00048363459987537836,0.6123827070398434,0.08664267326075807,34,46,80,84,3
0.003801074456971637,0.0005001595540538416,0.6150215385160872,0.08390142929997339,24,40,84,79,3
0.00372381599761209,0.0005400506433615602,0.6288814501413279,0.08254439294042026,32,38,78,76,3
0.003712074192340068,0.0005875056454556865,0.6313419417567077,0.08756356600152918,36,30,76,74,3
0.0037350247005630615,0.000628956056091665,0.6181925541209584,0.08434779642630956,36,30,78,77,3
0.0006918210513354043,7.86271881310943e-05,0.06534407170332329,0.009519453086306038,20,26,55,82,4
0.0006962736776448624,8.726370507683845e-05,0.06412720401324655,0.010161055799445668,28,30,50,81,4
0.0006819982907392306,7.796046902021215e-05,0.06259773993681139,0.010784922054016578,24,32,53,85,4
0.00065614342935514,7.316835756796936e-05,0.05760767821868477,0.010085300951198237,24,32,53,89,4
0.0005889883289280076,8.129547980476074e-05,0.056896903451094785,0.01055107847137018,26,42,61,87,4
0.0005393919755820583,6.31086026062276e-05,0.05168043813704752,0.009542788612491313,22,37,60,88,4
0.0004552432890173076,5.892436797592488e-05,0.04343351341051227,0.009036868031630044,16,36,66,89,4
0.0004574960434644745,6.2602564103059e-05,0.039931589590386625,0.009324141298765872,10,44,67,89,4
0.0004108093275414152,6.08471844713027e-05,0.03265288693717574,0.009304201689861931,16,36,67,94,4
0.0005255310923049991,6.997981054831377e-05,0.04183706278772072,0.009912003372883284,12,26,50,94,4
0.0005554362931725896,7.188205000903825e-05,0.044678313407914144,0.010116582247618335,14,30,47,89,4
0.0005614405000033943,6.613103571818311e-05,0.04859566624164281,0.009729021602825124,18,32,49,80,4
0.0005277731728567748,5.982413609864692e-05,0.04915567437905925,0.009101089945369237,26,38,51,84,4
0.0005102068567117236,6.84838931378299e-05,0.04522639258779843,0.008279134165220522,24,35,56,89,4
0.00043677951718139904,5.746493873045759e-05,0.0385804928362883,0.008020368457663315,24,42,59,86,4
0.000429164262081082,6.775265136079264e-05,0.03827780349230755,0.00860178928146195,16,32,57,82,4
0.0005671613312384587,6.988788791311894e-05,0.04229539750105403,0.00898083028496184,14,30,59,80,4
0.0004871645936421077,7.386560594486029e-05,0.037977012848551525,0.009119477979303084,12,28,60,87,4
0.000583384257460123,0.00018763989960204344,0.047964455460367636,0.015868054350538143,16,8,63,74,4
0.0006841145512802431,0.0013819330520456138,0.055672799385005786,0.08042424326070369,17,4,51,47,4
0.0006915395160779,0.0014467239545000793,0.06459296904241889,0.08154011778961039,18,4,54,50,4
0.0007388718973457946,0.001360145931562792,0.0667293879919765,0.07494638372524261,22,4,56,66,4
0.0007206715263722713,0.0012642217450132024,0.0734130605979645,0.0703314641740809,22,3,65,69,4
0.0006020686524759565,4.9392440382003356e-05,0.0728954340106627,0.007780278147167147,28,32,62,96,4
0.0005201401744199691,4.769691507889556e-05,0.06651219611751688,0.007609821581598876,32,39,52,93,4
0.0005483941016729544,5.188287224596313e-05,0.07157496732020638,0.008504646227202435,30,32,66,85,4
0.0005257197354249013,5.282877491364744e-05,0.06960182539971758,0.008136970424228132,32,34,63,90,4
0.0004936258552387114,5.592409705156583e-05,0.06375403772945677,0.0077633304778565474,30,32,78,93,4
0.0005728042069262007,9.199520450880959e-05,0.07489381342839503,0.00927464710025415,22,21,74,87,4
0.0008685074650969163,0.00011617365365752982,0.09149179418578295,0.00994906918899546,26,18,71,68,4
0.0009998316293589294,0.00013982924716217398,0.10205233360600324,0.010409963823814547,24,17,60,57,4
0.00117187112539193,0.00014049603339824372,0.11889271107924505,0.011333976020908144,28,20,57,54,4
0.0012510256688667521,0.00017394826778551346,0.13293198569832476,0.01437762453759292,26,22,60,60,4
0.0012539575575706051,0.0001743226585750798,0.12702697770713683,0.014974145127615147,28,26,56,62,4
0.0012153586703817687,0.00018120305920759378,0.12225093331200537,0.014992810120816937,26,18,58,55,4
0.0012691195472607187,0.00017295193328606875,0.11826219105190439,0.015397544620684612,30,18,62,51,4
0.001204132296836396,0.00018100858003125588,0.11702218891591,0.012671531597697705,26,14,58,52,4
0.0013067757890739215,0.00016258225026499217,0.12465250754915543,0.01233920083391589,22,22,57,58,4
0.0013443320989249194,0.00016968103109101123,0.12201809136364336,0.012819274111109868,20,15,53,65,4
0.001200787034462733,0.00012858269810071344,0.10614853078597854,0.011250417447024893,20,14,51,68,4
0.0007615016306640478,7.935596222863182e-05,0.07473990282929704,0.008833048142479623,18,23,58,91,4
0.0005264957632733955,4.601370056455941e-05,0.057895622821575184,0.007537796094917524,28,34,57,103,4
0.0004890446975615901,4.7095349947124815e-05,0.05915008756943212,0.008172559297469009,20,45,68,101,4
0.0005597870929948521,5.4229164993598596e-05,0.06931597905337324,0.008968448392668946,24,38,70,100,4
0.000580075161658802,5.983711688424466e-05,0.07160426096128739,0.009431110939204753,22,39,69,99,4
0.0006021176272397072,6.245293802796645e-05,0.07757089511483832,0.010033014037014426,28,36,64,103,4
0.0007725405929000862,9.699622381410519e-05,0.08363633640454096,0.010225653944703619,22,19,66,88,4
0.001072260822511893,0.00013599275484617695,0.09143855181378263,0.011359206106041676,18,18,60,73,4
0.0011289203572187243,0.0001527465786784011,0.10217909158107286,0.012145339238934644,26,21,58,65,4
0.006145413454680963,0.0035819163757057878,0.5413244436616951,0.5404277021322504,26,36,71,76,0
0.00626358247272737,0.0038926217114672295,0.576408424928555,0.5899800237817122,22,32,71,69,0
0.006224621336899356,0.003956818698558007,0.6158802322748813,0.5908100368844841,28,28,70,68,0
0.00661983735471045,0.004282937785282635,0.5946878076822953,0.612973740035831,22,30,66,63,0
0.006682440262861182,0.0041843284467589425,0.5966324718527772,0.5790031061673815,20,28,63,59,0
0.006806490158666956,0.003692566118582266,0.6104826268548659,0.5331590767397897,20,28,59,69,0
0.006019199871460088,0.0034813728209909045,0.5647260589257235,0.5087578258068209,24,24,58,78,0
0.004967030241123105,0.0030461037072502944,0.5172134105669037,0.4618129763137703,22,28,64,79,0
0.00500939133197793,0.0026477463502810467,0.49310021230896206,0.40882852306947054,26,28,59,84,0
0.004749968609321282,0.0026938911761104417,0.5033372670272531,0.39175255164151734,26,38,63,83,0
0.004708080899651791,0.0028188816289020594,0.5144597810963589,0.43682437136006436,24,32,67,76,0
0.004901337651338619,0.0027696658998004305,0.5752131434962224,0.4307677116777175,26,40,66,77,0
0.005007013148541094,0.0030097741527601424,0.5785804722654541,0.45075850884548974,28,34,65,73,0
0.005140581310640078,0.0031064875812913217,0.5926311605806115,0.4470083226144218,28,34,61,73,0
0.005237143368567502,0.0031311577950899907,0.585215652492836,0.4284048035754555,26,24,55,76,0
0.0063048781338022435,0.0031821259006247315,0.6085145298232277,0.4215192018163113,26,30,55,73,0
0.006845911797255701,0.0031875556929249725,0.6344426756278168,0.4356275519490357,16,22,56,72,0
0.00731998750026287,0.0032194520804570297,0.6353490532615091,0.43830702760288803,18,22,53,69,0
0.007364939866610364,0.0028008941036264706,0.6098084161293215,0.4078790862519254,16,32,48,74,0
0.005695394205753895,0.0028125087007623384,0.5271125884575983,0.38877364028629974,18,32,57,70,0
0.004958418673619528,0.002298641311496489,0.48361378155156726,0.33969406696771365,20,32,62,67,0
0.003903955568406946,0.002061775201999592,0.414283636549197,0.31704827963299753,24,28,69,74,0
0.0036352202719435772,0.0021322995493612963,0.41059882758892774,0.31991587677646255,22,30,61,67,0
0.003929429304331064,0.0023346531495190732,0.41796303015942515,0.34202045536991604,22,22,50,75,0
0.00562105745640911,0.005764511655124505,0.5366028487385328,0.6694247199713083,26,26,63,64,1
0.005614478274422402,0.005171185809777578,0.5364907700116429,0.643919109396509,24,28,64,64,1
0.005041079801849947,0.005241844270412217,0.5190385937364649,0.7222104228897519,20,26,66,67,1
0.0052476007445982405,0.00482366182496697,0.5631574363589237,0.710149679018407,18,28,66,68,1
0.0053037946585702345,0.0042186693196641055,0.5857133682877423,0.6233205187064119,18,30,60,70,1
0.004991178631145849,0.004179867247113788,0.5588091769453228,0.6299171989273108,22,30,61,66,1
0.004746245564001189,0.003744402980598049,0.5739273898392167,0.564299420902894,24,34,56,70,1
0.004894378786901765,0.0034139907964877087,0.5326187765356646,0.4944436678950226,22,34,64,64,1
0.0045656437380803,0.004716398391309477,0.5264536639397015,0.598842876056449,26,28,70,60,1
0.004179437673201907,0.005023957820115845,0.5043171543150817,0.691736234978716,30,28,68,60,1
0.00407836264277077,0.005619590915868311,0.4900608499988519,0.7414632301059209,26,28,76,63,1
0.004266350922176223,0.005639130809182555,0.4939442126005064,0.7530281794836369,28,30,71,63,1
0.0035256232967116274,0.004112308145738312,0.4221432069945015,0.5968110146074009,26,32,67,70,1
0.0037160057289597407,0.0037019964077184314,0.42510659909931775,0.4881617277341281,28,32,67,70,1
0.0043709187082263306,0.0036255687651289333,0.444207558145227,0.4611756567201289,24,32,63,76,1
0.0039574019444742585,0.003627633405924397,0.398332780177963,0.4408569572737875,26,26,63,79,1
0.0038642561157340204,0.004017513697141152,0.3859245782194762,0.5045001516667403,28,28,62,72,1
0.0032470755512848297,0.004258458124236566,0.3881814238500168,0.5499527500282959,28,30,72,71,1
0.0033315218689309676,0.003871846662691103,0.3691335464939855,0.5137595605056063,24,28,77,70,1
0.0034036035399643257,0.003882783342813314,0.39844188035379774,0.5401896067690333,26,22,79,70,1
0.0032972241469659772,0.0035053175063610247,0.42474795295201195,0.5259932080756969,24,32,69,73,1
0.003439728963423171,0.0029235484135000213,0.43881258326416395,0.48353645793524225,28,34,69,88,1
0.0029404296693221915,0.0030690003562504316,0.4229237389767201,0.4518512665697514,34,32,72,85,1
0.003132998887118765,0.0028046010980922824,0.4213469523688283,0.42179488009524907,30,34,68,84,1
0.003450576090742684,0.004057875223314363,0.28522413255251333,0.573832750733503,14,26,63,75,2
0.005210150130136734,0.0035025983620419615,0.35870365596438286,0.5481700231826725,12,34,57,80,2
0.005268598716650327,0.0029201703769709824,0.3905478962564537,0.4758576074692584,12,32,59,81,2
0.006310066381568689,0.0023826220105174645,0.45719544689107283,0.41885248180467255,18,28,55,88,2
0.006391129110263757,0.0018576167718765252,0.4202820628152332,0.34358149370355356,16,38,58,96,2
0.005196834500005375,0.0016659258815137268,0.41161148709318207,0.33509168426039476,16,42,56,97,2
0.005381692718887435,0.001792318277744205,0.4118307190256413,0.3591690318647667,16,44,57,92,2
0.004506361602019229,0.0016623604949513812,0.3744499993542138,0.3367448523764223,16,44,61,95,2
0.00504622021517527,0.0019183588714607475,0.44167629401833075,0.3502167787555994,14,42,57,93,2
0.006641500446870278,0.0017814532572123585,0.4997032592285554,0.3140105259066518,14,40,55,86,2
0.006144481358236296,0.0015926703393570683,0.49282479926642564,0.2879149508860471,12,46,53,85,2
0.00585940058035681,0.0015168297706938296,0.4707944342229369,0.2799349351467452,16,48,60,78,2
0.004364855117862953,0.0013382035129857902,0.37016627460268703,0.23656424079081995,18,46,69,78,2
0.0030958544529543597,0.0012678118914052259,0.3205968246238025,0.23098790926568524,26,48,73,84,2
0.003147064105702791,0.0011651704781276613,0.33772787148176214,0.2249386396783473,28,50,69,94,2
0.005055226590235559,0.0013174141592877152,0.48441077888353934,0.2357876796879879,18,36,60,93,2
0.005886586647229607,0.0013057027247010797,0.5169566894582878,0.2638633295096144,20,44,56,93,2
0.0068103238987409385,0.0014687598641792401,0.5887736110746308,0.2816977322590354,14,38,52,89,2
0.007792269393919638,0.0017645085122872928,0.645315502759967,0.3014108723055131,14,34,51,85,2
0.006382698036659466,0.0016396871083646123,0.5660624100341882,0.2710815304001965,16,34,54,86,2
0.00767356931354041,0.0018984839539376616,0.6267233974809817,0.25879584799730093,14,28,36,84,2
0.006400858059062695,0.002074784324473617,0.5214360329893886,0.28285098191962643,18,32,44,76,2
0.005253360561270395,0.001965742503465822,0.4326606377772608,0.2703734693582804,12,24,52,79,2
0.004751051578658842,0.0021883235973289773,0.4250719071991609,0.33255020901158827,20,30,56,81,2
0.005996125141970054,0.0008298927628383121,0.9841556441599514,0.11017088104603855,32,28,84,82,3
0.006552470336258087,0.0008414852003460952,0.9791381999713449,0.11651173030751705,28,34,78,80,3
0.006525722346601832,0.0007467965998489156,1.046335820282978,0.12141896419011278,42,42,73,79,3
0.005930307388639263,0.0008462685379325996,0.9875995004719083,0.13289476331785313,38,34,80,80,3
0.005901473461096649,0.0008111361477300994,0.9131953560194688,0.13966128431009328,36,38,80,83,3
0.005161202345109581,0.0008344083856299571,0.8555764377490404,0.13944684654443595,34,34,83,89,3
0.005432946778270069,0.000852588755289376,0.7909615872913386,0.13678156992221951,30,30,81,90,3
0.005373049468571909,0.0008570078277591666,0.8415276521583951,0.12651133400125666,32,28,82,84,3
0.005015954493756276,0.0007609008005283851,0.8837635455411312,0.12328646203418861,46,32,80,84,3
0.0051171412017007815,0.0007985601796194971,0.8986998883823663,0.11345732114792915,46,32,80,81,3
0.005056276306103832,0.000685005882535108,0.9479072039406861,0.11077755510007145,48,36,82,81,3
0.00498982259348681,0.0006097493134630427,0.9249200323191118,0.10983264828487674,52,34,83,83,3
0.005029402885329287,0.0005501512161152411,0.8730814866970052,0.1028219497163435,40,40,80,81,3
0.0051033703150946755,0.0005925932050891015,0.8549910880731045,0.10600528161010846,38,38,81,79,3
0.00448287771733208,0.0006397203275835647,0.7853901675060913,0.10943715751300169,42,42,79,69,3
0.0044710568030728185,0.00066559034486261,0.7764587821975266,0.10546152003705836,42,42,77,78,3
0.004706666644961229,0.0006769109692836824,0.7754089660766803,0.11250141655037844,38,48,77,82,3
0.0046329725656321435,0.0007697137972773869,0.7817330273066146,0.11231846293745562,38,32,79,78,3
0.0049422909910642465,0.000714381356918854,0.7998311101636583,0.10818708155175256,42,30,79,82,3
0.004614647775616226,0.0006942795286890674,0.7819097783433768,0.10144790510160581,36,38,88,77,3
0.0045111574891446805,0.0007442792823438678,0.7573503120550437,0.11226457766312152,34,34,94,75,3
0.004486706613097345,0.0007467928555991406,0.7696666459464873,0.11648433982386765,44,42,88,77,3
0.0047454399841978965,0.0008036433478948715,0.8646325186045283,0.1358136030199497,46,44,89,76,3
0.0052750664814023894,0.0008625245138283643,0.8727659427116451,0.13918250748924813,38,52,80,74,3
0.00040764933839129697,6.106433546766002e-05,0.04924404979561567,0.01017943272847403,22,42,72,88,4
0.0003927927545349003,5.83641987608444e-05,0.049817150059526555,0.009626846679841658,30,34,72,89,4
0.00037500900718802924,5.449366781831341e-05,0.04578637034856116,0.009131970693246247,36,30,72,90,4
0.000398099357513662,4.8097878319737115e-05,0.04814672189360598,0.008575878959444805,28,38,72,94,4
0.00035628278704245636,5.010932980737343e-05,0.04431702851661361,0.009129343442572435,32,34,78,100,4
0.000332323636569229,5.076998779886489e-05,0.0415683238860446,0.009130804631391693,28,42,71,93,4
0.0003679640730994721,5.089178589802135e-05,0.047179390761431565,0.009619280583639851,22,44,80,93,4
0.0003644897006002221,5.059050234843558e-05,0.04360991968611799,0.009473559360931912,22,34,75,93,4
0.00034036458485275196,4.9320206127517645e-05,0.04171377836316157,0.008981476096012332,24,40,74,94,4
0.00038607356151724656,4.769120322152643e-05,0.04867621813410757,0.00836173649813231,30,40,72,101,4
0.0004161628791328713,8.463445953955606e-05,0.04635452649749813,0.009466933279378843,26,13,71,90,4
0.00047805458922764053,9.722480952248816e-05,0.05611898272219629,0.011499989368231435,28,22,68,84,4
0.0013518178950348075,0.00023311864938696075,0.1280276857363136,0.02236431072883278,10,16,66,83,4
0.0017131714991356986,0.0002920802271996779,0.149764108097607,0.028202525466655123,10,20,62,76,4
0.002004003428588834,0.0003292651958384362,0.16727388380455183,0.03129050950105752,10,24,60,67,4
0.0021149761290431075,0.00026274396657963807,0.18276982717514165,0.02539378355645354,12,16,52,72,4
0.0016103707418533347,0.0002092555360478312,0.13110899909567375,0.022875055706686753,16,24,64,79,4
0.0014507048876949366,0.00019954935309382502,0.1307710153257585,0.02003067526204934,16,28,62,79,4
0.0012360444600925038,0.00016387201733778073,0.11607584917938435,0.0174172161631813,10,26,72,76,4
0.0010795287811487812,0.0001680837919204671,0.10384656461028978,0.018432865923209092,16,22,67,78,4
0.0009676902481347371,0.00014869770333050705,0.09164964613231479,0.016755555783519317,24,18,62,71,4
0.0007491843066697149,0.00012963351290916386,0.07229515653125439,0.014070061893100361,24,20,62,70,4
0.0007975743328936506,0.00011168954767112273,0.07623177831025436,0.012126847115445856,16,26,60,68,4
0.0007289126309531696,8.503163539468586e-05,0.07181331106414127,0.010465878449066497,16,28,56,77,4
