f1ch1,f1ch2,f2ch1,f2ch2,f3ch1,f3ch2,f4ch1,f4ch2,Category
0.0009355300657321364,0.002807987406209041,0.1206411208684573,0.33501281862486404,30,22,70,72,0
0.0010305558967017645,0.0032271703893025834,0.1293418279830298,0.38227122702246036,24,24,64,60,0
0.000990007842082536,0.002988694701685662,0.1417828538385187,0.3647970507991814,28,30,73,67,0
0.0010712086491188664,0.0033695554992939037,0.1581004552476819,0.40102522803821533,32,24,71,53,0
0.001065799885035649,0.003663428573307548,0.14931789841327042,0.4112743105045037,38,26,77,53,0
0.0009953639710582603,0.0036457923624596067,0.15225648314327395,0.39265064650722176,38,26,76,56,0
0.0009228573913442658,0.003984970678776879,0.14130666169587258,0.41802818618611665,36,22,81,59,0
0.0009365630453780627,0.0036170303877161546,0.14029477817540675,0.43053502364814966,32,28,81,59,0
0.0008857862832636448,0.0037092810832334146,0.14180821842768634,0.41755783816934894,36,22,76,68,0
0.000836158752611007,0.003329623224618094,0.13211507700636327,0.39804858966007745,38,28,77,67,0
0.0008656073388990955,0.0031269047315311462,0.13598945783425298,0.3507277736099979,36,30,71,70,0
0.0008664810516282901,0.0030400296225464927,0.1294796587565517,0.3363099692228525,32,30,65,67,0
0.000926299776052207,0.002712848129712885,0.13699284037218623,0.33654607749658516,38,28,65,62,0
0.0009437310120632384,0.0027368293987488734,0.13162976337668375,0.3374919787685075,28,30,69,65,0
0.0009626039980508664,0.0026282416834912193,0.13247568268324153,0.33142599140693907,30,28,70,67,0
0.0008657590736455386,0.002840617651769368,0.13089244619990714,0.3443188067585105,36,26,80,67,0
0.0008015955995612534,0.0028947750295535545,0.12031043819381139,0.3519978037844037,38,22,80,69,0
0.0008209137044745004,0.003188356404824595,0.13124794320775893,0.3769272239586291,36,22,81,67,0
0.0007569334468069885,0.0031538956832241364,0.12069321661125486,0.3783699576060307,36,26,70,65,0
0.0008629810223689447,0.003194902249757492,0.12664998060303784,0.36479202238739833,30,26,68,67,0
0.000935860714900749,0.003415531713756859,0.13256803247841603,0.3752319867758106,32,26,65,59,0
0.0009421465407568622,0.0031166734266272096,0.1265489243489009,0.3568393522268996,26,32,62,57,0
0.001028818708187275,0.003358365905404842,0.1358332667407486,0.3728267973343486,28,30,68,55,0
0.0010072391098314376,0.0031776759086566265,0.13703359243646757,0.37475314957995126,36,26,66,55,0
0.0009643803861649526,0.002860816020352623,0.1341984087026219,0.3592534466080263,34,30,70,55,0
0.0008985974984466355,0.002792798438642962,0.13726886079070996,0.3499021735946992,34,32,74,53,0
0.0009127978932248021,0.0029829457308266243,0.13571755552699075,0.3499148996222137,32,30,76,51,0
0.00087033302387722,0.0030231643696837698,0.13286297804359407,0.3329608241914876,36,32,75,51,0
0.0008793183297763175,0.00330362165308881,0.1272387042870928,0.3300008860798693,40,28,74,55,0
0.0008584442900542084,0.002943708049501387,0.12500135077931207,0.3031119616317363,40,24,76,59,0
0.0008835578075813139,0.002671504476916811,0.12549672781172977,0.28162899081749226,36,28,75,62,0
0.0008434306304824607,0.002496888535016807,0.11632729709441963,0.25682950583859354,34,20,69,66,0
0.0008781282550944428,0.0021398972126507234,0.11888634827039435,0.24842395125174108,26,26,69,65,0
0.0009027014121493443,0.0022953541315515456,0.11648623389467576,0.26856472087163175,24,26,68,62,0
0.0007333572035080779,0.002499339704414629,0.1072418199095933,0.3028732983480559,22,28,72,58,0
0.0007326754525647218,0.002376905334466511,0.10815201948974199,0.29590959669002165,26,28,75,63,0
0.0007437303093333229,0.0023809179021164802,0.11314832652437863,0.2938756164954048,32,24,76,61,0
0.0007696018285789498,0.002379004191709904,0.11675780264619627,0.28373071094475616,36,28,75,60,0
0.0007792838768514739,0.002332040526690768,0.11870683725639877,0.26947383769073346,30,28,73,64,0
0.0012670901923275849,0.003778277883639767,0.14629333364373115,0.40412985215266634,22,16,68,51,0
0.0013587745013614082,0.004407190831281439,0.15783097283749656,0.5179704447117462,20,16,70,52,0
0.001392445996655309,0.00524100121730658,0.15646876109086594,0.6212200674762685,26,24,70,52,0
0.0012287455688375025,0.004729938213793807,0.16935883765509815,0.6359049278299813,38,34,67,61,0
0.0011502791926380684,0.004789123669953797,0.16346284009599377,0.6371941930653031,32,32,73,64,0
0.0012615015917771951,0.005047009738164675,0.17979032905911624,0.6348734325928063,30,28,71,64,0
0.0012238551473876668,0.004956489854584557,0.17829162360855846,0.6900915988758164,32,30,74,58,0
0.0012699479551652095,0.004665686506830771,0.17369690008550034,0.6635427673785116,30,28,71,60,0
0.0012896659947162375,0.004685635599143683,0.1765561056505491,0.6829638415284249,30,36,71,55,0
0.00017563361636159963,0.0005382212095332016,0.01781707324662223,0.04119377386388645,20,16,58,56,1
0.00018155134852552722,0.0007358392115474327,0.017387769219293338,0.07239107621331224,21,18,53,51,1
0.0003158865103230969,0.0009479715169547884,0.02591979913596356,0.10517380455186928,12,20,55,53,1
0.0005034444761244728,0.0011379335677500289,0.050569614524484476,0.12927543254361887,18,30,53,52,1
0.0015524564633448204,0.0015192118836077897,0.10475934776617682,0.17115703653006176,10,22,50,58,1
0.002019224979024016,0.0018275483665126796,0.16528814663113398,0.22588362815422455,14,30,60,66,1
0.0024943445293505893,0.00226110677274889,0.20911483066915137,0.30208287677084134,14,22,52,76,1
0.0031176631940209184,0.002892923419038308,0.2558385824905336,0.4137123139952688,24,24,54,73,1
0.0028769326120409995,0.0029915209448727327,0.27419034684289795,0.45380531565654597,22,24,61,76,1
0.003132506858028352,0.00305337733547856,0.273642746014595,0.4636382058044285,20,32,61,71,1
0.003749597482948869,0.0027027373274070717,0.3222918024325969,0.4460359305653663,18,32,56,73,1
0.0036738492075045746,0.0022449503722300865,0.3340624831716962,0.3716500260498951,22,34,57,78,1
0.0035534291721398153,0.002278482430270049,0.31974377754140276,0.36628380344071276,20,32,58,82,1
0.0032682108504026777,0.002298185576279011,0.3126586729053222,0.34110417281328476,18,32,51,82,1
0.0030612399390176465,0.002178811679119629,0.2866303224761836,0.31644443554614005,20,36,50,84,1
0.0029682479350919455,0.002239960458383989,0.3074693954394152,0.34231991463898725,20,36,56,80,1
0.0034452035737803704,0.0021523886920830747,0.3275629735709609,0.33784836662054313,20,32,50,81,1
0.00406094045871521,0.002261900797442837,0.35180743739484316,0.362076841560874,20,30,60,81,1
0.004879471985598036,0.0022835443887891404,0.39558714789612787,0.3707563244766514,16,32,57,77,1
0.004538470667887912,0.002402161633872103,0.37832475677443816,0.3677102605771162,16,36,60,70,1
0.004554276173601863,0.0029584845745544357,0.3869426212145922,0.4460550130570727,16,28,54,65,1
0.004563753990330422,0.0029657426466112836,0.38969992374353496,0.43388856412412297,14,32,52,60,1
0.003984377649868877,0.0029300022509744805,0.3760206387771836,0.436486124861977,28,34,56,61,1
0.003867707890620423,0.002746385560769583,0.3793124035637374,0.4244732705603031,26,30,50,75,1
0.004240434683751338,0.002190821301258003,0.3895549920682627,0.34813170286545714,22,32,47,76,1
0.00474515644422029,0.0021066357135902385,0.3978993490702539,0.34189911812624324,20,32,44,85,1
0.005772579158053692,0.0019925626285668676,0.43464503096669604,0.3377064690367214,20,38,47,87,1
0.005772183599714439,0.002201310894849532,0.42292929364408877,0.3516481023675343,18,32,44,78,1
0.005370640176492371,0.0024683089761391415,0.39952279234641164,0.39628702973889457,18,34,48,76,1
0.004381102939482893,0.0024805633585557544,0.3892039588189818,0.39523023076211317,18,32,53,67,1
0.003475977416421887,0.002792407666722495,0.3267540164646429,0.3832713663903278,20,30,54,71,1
0.003431235341757001,0.0024764678239763147,0.3221304862475726,0.3684829869095601,24,32,50,74,1
0.0035955328639497154,0.002388405454214046,0.3323558915350966,0.3143942415894524,26,32,55,72,1
0.0031851266441512045,0.00230404966830309,0.3160481432044325,0.30847943194826305,24,24,57,85,1
0.0029256110662554593,0.002060234760769748,0.28855666834752725,0.3071888257383935,20,28,61,90,1
0.002589128612816754,0.002055218678618044,0.2636301510763423,0.3218391735214751,22,32,61,89,1
0.002389405734886805,0.0017278073867273403,0.2454436096397774,0.3101994351198612,22,34,52,93,1
0.002790284594172128,0.0018435815637741228,0.2624093020673382,0.3071519467939722,24,42,54,87,1
0.0027354658829093844,0.0018714550926049662,0.2809855848363276,0.2984066177664205,30,34,52,83,1
0.003230559889735528,0.0021989278055697106,0.32304129914665036,0.31784791712542393,30,34,54,82,1
0.0034122384721686277,0.0024763757011682405,0.33191864876985816,0.32847890621502746,30,32,57,72,1
0.0034078760513164517,0.0025421657528782427,0.3359719564836521,0.3462006306595286,26,34,64,74,1
0.003346636405520148,0.002411395382322669,0.32442768811904765,0.37147341343473805,26,34,60,77,1
0.0031077568827185945,0.002273931120417582,0.3180313433275494,0.3406156347436715,26,30,62,74,1
0.003489667174043004,0.0022573839365360284,0.33887949077638413,0.33306941819580727,26,30,59,75,1
0.003671704472377577,0.0019111932984208302,0.34963143622469545,0.3402543440586869,32,30,63,80,1
0.004121015881944909,0.0023636594696765487,0.3754358449312049,0.35543578011451366,26,28,53,69,1
0.003611650828678466,0.002427514150232614,0.3483402345345542,0.39643275115451654,22,32,56,74,1
0.0016586247857716407,0.0005476113949513775,0.23497375856532485,0.08164942914379823,34,40,66,81,2
0.0015813366737261517,0.000567411724653325,0.2261638657286839,0.07905248246619312,28,30,70,85,2
0.0015704181736020861,0.0005369235351941439,0.20863502850696347,0.07714103338118135,22,31,67,80,2
0.0015355669086102107,0.0005720622921795705,0.19264641311619807,0.07352080878778165,24,26,68,76,2
0.0014182534990069343,0.0006049870907824982,0.20538253900540152,0.0760823346359026,32,30,65,72,2
0.001461656222502456,0.0006143157092827473,0.21852670462072912,0.07247304071105139,34,28,65,72,2
0.0011867394509225875,0.0005195802906033165,0.19509976856259476,0.06771020388645087,34,26,69,73,2
0.0011941938505327313,0.0004912906197062812,0.19129870367613191,0.06476036241888025,32,24,71,77,2
0.0010969942162037212,0.00044890200601935796,0.16122172238239324,0.06153404149586587,34,27,74,73,2
0.001001069486758605,0.0004054524562122163,0.1386109783727997,0.058899321304764884,28,28,70,75,2
0.0010219885702694468,0.00045087696206623615,0.13557843488043372,0.05923777340868327,26,27,67,78,2
0.0009808222143642437,0.0004489231855321875,0.1265773756769955,0.058034696942063896,28,24,66,78,2
0.00103535855739198,0.0004118674876057863,0.1248461718388572,0.0579966358302664,30,24,68,79,2
0.0009479667813550055,0.00044489635019832966,0.1202719504737026,0.05699852429519005,30,24,66,81,2
0.0009595854199068712,0.0004203221562411351,0.1261266574746081,0.05754867399418088,34,32,64,81,2
0.0009552433865448203,0.00048709855526697405,0.1256738576363391,0.05850729594323884,26,24,61,79,2
0.0009716068987419853,0.0005359537673639232,0.12321602820769624,0.06005467810378467,32,32,64,85,2
0.0009201132732237667,0.0005109814488131822,0.11640755759782412,0.059034958109193646,30,26,70,86,2
0.0007961529788867864,0.0005120579606806206,0.10393766483146435,0.05613863934365537,38,38,73,81,2
0.0008706481707487734,0.0005100796623434378,0.10441050320167627,0.05943985634302108,24,30,71,75,2
0.0008747538249480457,0.0004775385102861562,0.09700740878776459,0.05663711549829086,20,30,72,73,2
0.0009013624960356455,0.0004469389682030353,0.10104671248582417,0.05933700091433891,22,36,68,67,2
0.0008927413927274108,0.00043460793488415126,0.09509521273946277,0.05609683553575825,22,34,66,74,2
0.0007709886147185223,0.0004298248728314027,0.09418499944987979,0.052577834353322375,28,28,66,71,2
0.0005351478272964357,0.00045533228085561516,0.08183133595645878,0.0511673495541764,34,28,72,68,2
0.0005241496886128174,0.00047531305943708144,0.0727157963103447,0.04559259976774885,32,24,72,68,2
0.0005689759483391427,0.00044557033872287815,0.07911630147018228,0.05020603593164421,38,22,67,70,2
0.0005837835823037881,0.0004389743270149738,0.07794279682322246,0.04440725667635034,30,22,68,74,2
0.0006854912364212521,0.0003674934030966191,0.08986632122704283,0.044369541200954266,34,30,63,82,2
0.0007681309828538324,0.0003726381680891947,0.09646817459539588,0.049243442500545936,30,32,56,77,2
0.0007480903546343688,0.0003613118307957011,0.09293008647814827,0.04731066501034166,36,28,58,71,2
0.0006897412304173807,0.0003904396092284549,0.08941158017540209,0.05063900633321233,30,26,66,74,2
0.0007759989565159154,0.000397988702455043,0.09089428251605888,0.049557026285263005,24,28,61,73,2
0.0006883871762929155,0.0003781566346224067,0.08502775878409428,0.04652733924595734,24,26,67,79,2
0.0007071304889660478,0.00040832936194352043,0.09351629615180894,0.049390484316513876,26,28,70,79,2
0.0005822345001144188,0.00041644339372087454,0.08227483096214666,0.04856276068417156,24,28,72,72,2
0.0005372144546029916,0.0004000277960737907,0.0771394198934253,0.04777527799800864,30,30,74,73,2
0.0006003580203936883,0.0004257445041990583,0.08351721753133941,0.04948938460538227,30,28,69,71,2
0.0005156117720109232,0.00040281078789052705,0.07337993648422074,0.04722044286907396,30,24,66,75,2
0.0013733760235145956,0.0014090409125492446,0.14786491282086714,0.10160631083575138,18,4,66,71,2
0.0018129191490280825,0.0015245101628554405,0.2150111401125529,0.11924606114819397,22,8,70,72,2
0.0021902529690262704,0.0015907138512317573,0.2703346917871045,0.13198247943283792,28,10,78,68,2
0.0021972402893072436,0.0006419294934120819,0.3118014839866809,0.10657509845849047,34,38,78,74,2
0.00210653873016032,0.0005922126901569321,0.3172948450505045,0.09513538102403767,34,35,70,77,2
0.0019711710033289516,0.00048658694118877693,0.2824413186431772,0.07986711748765987,28,34,70,87,2
0.0016164489477165965,0.00044082237567958147,0.251653692489571,0.07019831392555155,30,35,69,91,2
0.001473089782019863,0.0005166533337953,0.22695921220062912,0.06827200487795708,34,28,62,86,2
0.0013155887064983719,0.00048334290238041865,0.18772856068834393,0.06235649589318385,36,35,67,87,2
0.0003402800681658629,0.0006427757331742127,0.02694958583178601,0.07849537828506896,16,18,46,57,3
0.00034776260238414733,0.001571199527431103,0.02948074274259071,0.19944608919973103,27,19,56,63,3
0.00038702070688805283,0.0026096905565014612,0.03562447452730665,0.34566856084641,20,24,62,65,3
0.00043093563566654514,0.0033508511212842224,0.04290522200343896,0.45801261019736805,31,30,66,61,3
0.000527914697823878,0.0045387676155403765,0.054548138778511966,0.6549859086681056,26,26,72,69,3
0.0005489097165803892,0.005132086597841412,0.06570265592065576,0.7386387618160025,29,24,69,64,3
0.0005807767617789744,0.004647629233559739,0.07032195791800315,0.7201091209085341,26,26,71,65,3
0.0006155954647985614,0.005408501401906164,0.07640274280668999,0.8094186675298846,31,24,72,66,3
0.000656218041359757,0.005877629824020105,0.07377889828550788,0.7515016417645721,24,26,74,61,3
0.0006032433780861668,0.004823259655040018,0.07135591001437759,0.6860539590637664,33,28,70,72,3
0.0006316484139914029,0.005525346388095216,0.07597026652540365,0.7625507677995277,30,26,74,73,3
0.0006096255578089296,0.005313715750697133,0.07436903760294848,0.7214995159234635,29,28,76,76,3
0.0006349201530980839,0.00470459178147653,0.07660877387939416,0.6930662324017841,26,38,77,81,3
0.0007149232698687686,0.005027652379026144,0.07843457971006927,0.6989829905564826,27,34,73,80,3
0.0007641585299917563,0.004608658761361257,0.07638450816807602,0.6627849624770255,22,34,71,80,3
0.000799364696738219,0.004815472218996625,0.08122965719196334,0.705047365420875,23,30,64,76,3
0.0008162025583496894,0.004795818047955041,0.08646985374759807,0.7341610211214497,24,36,56,74,3
0.0009098742144001182,0.005316545672233797,0.08580063517871926,0.8626855833233135,23,34,59,75,3
0.000923462519972384,0.005418834376847671,0.0902196639974946,0.8516661856154383,24,34,61,77,3
0.000934714177544775,0.00561859232086157,0.09461104640949121,0.8432748236198623,23,34,58,78,3
0.0009207081593461467,0.005887650188952048,0.0961725488306187,0.8843614563830127,22,34,60,76,3
0.0009480436898464874,0.005664954366248645,0.09743681076504167,0.7632388307986624,25,30,60,77,3
0.000976034340648053,0.005474903628048742,0.09480233777479043,0.8514377719257493,20,32,66,75,3
0.0012012006568361006,0.005291373314995218,0.1014440072150657,0.8844520374657593,23,34,64,79,3
0.0013093479354902096,0.005170357199762421,0.1056388689358736,0.8572242440564056,24,30,72,81,3
0.0014442796406824868,0.005517670439575248,0.11297826443022099,0.8452261234492379,27,32,59,77,3
0.0015825028602710306,0.005232860938398186,0.11692803686972095,0.7749281859139207,22,32,51,76,3
0.0015577618240372668,0.005399785620339396,0.11146994063153871,0.7171860716814108,21,34,56,73,3
0.0015519262202124632,0.005412088368151624,0.10931832019475428,0.6978116066621116,16,32,47,70,3
0.0015956022614650822,0.005351124996608935,0.11123538543931705,0.6866604687049287,21,26,41,69,3
0.001637476769855783,0.005705486231454836,0.11266645575470308,0.7085807646814852,22,28,52,64,3
0.0016389682761091557,0.00518381193246063,0.11030971133963204,0.6710309928916104,23,26,59,67,3
0.0016561586521048205,0.0049106497938335965,0.10730427091756849,0.6501799625310303,20,28,52,67,3
0.0016913442656870537,0.004480133583994581,0.11076071160273869,0.6455243462871663,21,32,48,68,3
0.00173515137779886,0.004284038623499225,0.1070883808090235,0.618647828984748,18,32,54,73,3
0.0017759812971512908,0.004727771775693443,0.11431159763033245,0.6490400926505504,17,26,45,66,3
0.0017188535398467936,0.004937865134598481,0.11365348140936049,0.6677597956235466,20,30,46,66,3
0.0018001357238062554,0.0051594084138549216,0.10577935821493971,0.6787291537625408,21,28,48,65,3
0.001833646403778406,0.004961722788980749,0.10602197110492603,0.6515820827867302,14,26,52,67,3
0.0019291449939502847,0.004364105238173836,0.11953301162801964,0.4925548093021733,21,22,35,63,3
0.001637884464023532,0.0034690076637580404,0.10157275606514661,0.3818836767825715,10,16,27,59,3
0.001134349559573136,0.0029183595950309205,0.0758956295884723,0.3525610137578483,6,24,48,63,3
0.00026161238265186846,0.0028263147502307884,0.0358151595451284,0.3583930230158285,26,24,69,62,3
0.0003096597201088556,0.003715987318959716,0.04962155725864855,0.4839124856117077,32,32,77,70,3
0.00037178893891613577,0.0041662029123196,0.057461266732838516,0.5822328510530334,32,34,72,68,3
0.00041087740334892515,0.0048428791905977845,0.06420174904399298,0.6798569829485371,30,36,70,71,3
0.00041612883176598154,0.004678200315262487,0.06429083953547858,0.7050396889698218,34,40,71,73,3
0.00042992365369095805,0.004675825749809359,0.06300450505987829,0.7288191906206374,34,38,71,73,3
0.00018403119111762972,0.0005577678542226109,0.021046112837847457,0.05359726439455181,24,22,61,51,4
0.00016186510840030262,0.0005344940183992447,0.01844645720453282,0.049910109978331396,24,18,65,57,4
0.00015577905091837503,0.0005005410266070833,0.018666909957039422,0.04814742334039959,32,22,66,63,4
0.00015625044750435213,0.00041872695548921516,0.018920873167503852,0.04040686097283325,24,18,66,61,4
0.00016333314705833826,0.00041755456306637884,0.018594569432886558,0.04062724524921824,22,18,64,57,4
0.00015664823099407457,0.00038260113774945983,0.019007545365094015,0.03890934550619879,28,20,67,56,4
0.00016358937528963236,0.0004020235531185324,0.019635474728339423,0.03780166222774519,26,17,64,54,4
0.00016997505302661473,0.0004187958337203391,0.020331172060380296,0.0396828696205694,18,20,63,53,4
0.0001555116966269232,0.0003934637065003985,0.020377042760984194,0.034233608061327074,28,25,60,59,4
0.00017858028511580305,0.0004040049215697713,0.0211481871075188,0.03991975526244808,16,18,56,62,4
0.00017674849498413024,0.00044672353992922817,0.02108372064477663,0.04006544325381392,26,24,60,67,4
0.00018296412791538334,0.0004191984056232058,0.019082577705967295,0.04332395090666114,20,24,58,63,4
0.00017513312755317154,0.0004230013031289059,0.02053300658994308,0.044989057552400895,26,26,58,67,4
0.0001540295198372903,0.0004131299608645855,0.018257066779178422,0.04191846003217282,24,20,58,63,4
0.0001534034093402612,0.0004188633814684347,0.01937584165619436,0.0414805814280846,24,22,61,63,4
0.00015206109650097737,0.00040181503795757374,0.0193139930072309,0.03579684662853581,26,12,58,71,4
0.00015559437658592952,0.00042253893275724034,0.018435047392583642,0.036903606070650956,24,13,54,58,4
0.00017612156021516967,0.0004505328656261576,0.02043374471631662,0.03840040884767679,26,20,51,57,4
0.00017466968072700755,0.0004306824126820175,0.019634205980234055,0.03763282669208091,22,22,54,53,4
0.00018150357316896207,0.0004094359249049053,0.01963070797094253,0.03896667566432579,22,26,62,55,4
0.0001754583082567842,0.00041139960574424085,0.018632821061474333,0.03906310249490937,14,28,60,56,4
0.0001561369461783063,0.0004056988794866599,0.017309931663417325,0.03961997973727978,20,20,64,61,4
0.00017355802150280475,0.0003862831573358224,0.019158370552340098,0.04068933350539728,20,24,62,62,4
0.00017029656295766642,0.0004112883862246451,0.01985621943949276,0.0440941306537581,28,20,52,61,4
0.00019093958666745018,0.00039560016331764263,0.02082002931177724,0.04158334610784466,26,24,52,66,4
0.00018504267155076745,0.00045728049522197287,0.02133691352629106,0.043870150437089236,30,14,56,61,4
0.0001734470020502809,0.00043630786172226135,0.019500309537665666,0.04299656412170122,32,18,60,64,4
0.00022860263595695995,0.0005751139380447403,0.020257872410783112,0.04746089447890593,22,18,57,62,4
0.0012168599930706516,0.0023260774459355916,0.0731397659238955,0.13934955138405666,4,4,60,58,4
0.0012672811661381905,0.0023455452585811375,0.07067432612795886,0.14047891880623137,4,6,67,51,4
0.0012236877241446652,0.002277742040665799,0.06603716475620958,0.13448248519050585,4,6,74,65,4
0.001146929994799575,0.0022249503841876173,0.06289516236495572,0.13960839271283632,3,5,76,57,4
0.00017557669987571003,0.0007038029798704515,0.012923432481076117,0.06220242441753548,20,16,50,58,4
0.00016940795914118195,0.000727588712250237,0.01433822143445367,0.053688066157105335,22,18,47,59,4
0.00018058524148383174,0.0006787103240703852,0.014513177198018664,0.054382645465090564,18,16,57,61,4
0.0001878272322111876,0.0007011172249885112,0.015539566431329027,0.051623886405007945,23,18,51,52,4
0.00018051048578350922,0.000605478915080239,0.017011045868918787,0.048991913365575644,26,18,58,53,4
0.00018253093223354996,0.0006166964347694513,0.016006906461388824,0.04971843081839789,24,18,51,53,4
0.00017407174225545958,0.0005787792162645431,0.01663795178830918,0.051789157923133565,26,16,58,52,4
0.00017906299298178018,0.0005798630971013726,0.016536514454957834,0.05139690515481561,27,15,55,55,4
0.0001615247006636393,0.0006046035998181456,0.013824837993350873,0.04934644212601837,18,20,57,44,4
0.0001613786252351951,0.0004896849402717782,0.013740738308945639,0.04797685082089436,22,19,60,47,4
0.0001437833450388069,0.0005072426815425284,0.013534763515285967,0.04566936649249598,22,22,65,44,4
0.00014676089376108224,0.0005101480120432373,0.012622719359844103,0.04353848461242044,20,17,64,46,4
0.0001498898960893836,0.0005067050093716755,0.013154773720400966,0.043772577966774064,22,18,63,43,4
0.00014191099786488586,0.0004810137755545611,0.013392594787870972,0.040495296131686474,26,17,61,41,4
0.00013888766165096942,0.0005418174422729303,0.012581852621559206,0.04222742477709886,24,16,57,49,4
0.0001502562306598813,0.0005254674790282683,0.013135020747265871,0.04589761323644674,22,17,56,47,4
0.0008513076479541238,0.003552515022177561,0.131064295658903,0.43718582100565173,32,24,73,52,0
0.0007974106285408774,0.0038453143739582505,0.11866087593578742,0.46673752770314486,34,28,78,53,0
0.0007360548175540407,0.003403162633057272,0.11612605093354994,0.419402089724971,36,26,76,52,0
0.0008257524310036516,0.0029997743437680984,0.1173247245755866,0.36286505557095655,32,32,73,55,0
0.0008201081163393492,0.0030287675027821687,0.1230879949892384,0.36868987299748374,34,28,72,56,0
0.0008541707403178385,0.0026119110342435786,0.12076438067463992,0.3183992639397122,28,24,72,57,0
0.0008813889687620251,0.0029103745182155133,0.12406858612601368,0.32640253149961357,32,20,68,60,0
0.0008152753139358344,0.0028585480925457487,0.11987012853672681,0.33078824147854846,32,20,74,59,0
0.0008908154580374415,0.002644262765938021,0.11123075473415153,0.29313348446908666,24,24,76,59,0
0.0009619319182518855,0.003299335666349298,0.13518356076512564,0.35240167513282583,24,14,84,60,0
0.0010071775397509208,0.003650473316816396,0.14205089871986507,0.44311776449698426,28,20,86,65,0
0.0011032322298057166,0.003913559376251411,0.1569469476479133,0.4858440437790737,32,26,88,59,0
0.0010095348711950149,0.0037007809426355897,0.15619424389709277,0.49126817944673506,34,24,83,62,0
0.0009197524148022907,0.0036112157012931734,0.15110606427289036,0.506484859794261,38,34,81,64,0
0.0009321181035553845,0.003566383657571025,0.14087109641219142,0.4777926280242524,30,28,79,61,0
0.00080350911396133,0.00398710410211259,0.13546921227911818,0.5040747103107647,34,32,80,59,0
0.0008067395127835254,0.004211563049317171,0.13775233506165172,0.5452704574373216,36,32,85,54,0
0.0008256516619144598,0.004373364115456632,0.13658862064864266,0.5177606362965664,30,28,82,51,0
0.0008521023255441684,0.0038993348472056077,0.13727683148027597,0.4909868076782733,32,30,79,53,0
0.0009099026973681005,0.003637784039708593,0.13919126954106048,0.44978844330923407,32,28,73,54,0
0.0008640748836294783,0.003515319199694064,0.13956489988192827,0.4316676277814934,30,28,71,54,0
0.0007960884632140286,0.003117774424311828,0.1340377406843137,0.4267507210065205,36,34,70,61,0
0.0008384939661800563,0.0034414877428466644,0.13602226203601486,0.4367841246052935,32,26,73,62,0
0.000740755420080311,0.003533088577657424,0.13186141223399037,0.45721377943259195,32,24,76,60,0
0.0008149279055877378,0.0038803735429685437,0.1366551002568618,0.4732836188828119,34,22,73,59,0
0.0008352130132673331,0.00397176308041901,0.13690817156912774,0.46145030774249574,32,24,73,59,0
0.0008000152259579037,0.004349366642327008,0.1344576128353652,0.4710622641810011,42,26,72,56,0
0.00084685223445895,0.004189479430196178,0.13962685450383924,0.446117615830781,38,24,69,54,0
0.0007628596063288684,0.0036043968614177507,0.129640038354059,0.40285303261296,32,26,71,54,0
0.0007592420568267233,0.004005028309558822,0.1266767992801775,0.4580327472818472,30,26,75,53,0
0.0007478597584297669,0.003762270354768996,0.1185074209613581,0.407961813206489,30,26,78,56,0
0.0006702963017243262,0.0036705911918001473,0.11294611423734874,0.4241450837787623,38,28,82,55,0
0.0006688668655987178,0.0035464272649544364,0.10761594245182679,0.40726655186309835,34,26,84,55,0
0.0006555952884815747,0.0036456886698395894,0.10601531037656613,0.39459864993332405,34,26,78,56,0
0.0007583178541764382,0.00364834567104238,0.11892211907131575,0.3983299116443516,32,26,74,59,0
0.0007466700577510629,0.003621752694783366,0.11808786083388265,0.4171648744082428,32,32,74,61,0
0.000750405948433941,0.0035597442369423703,0.1235914587579561,0.43648045224275644,38,30,67,62,0
0.0007458138503562288,0.0034595840938863387,0.13303740052849214,0.43099042700276397,34,32,70,64,0
0.0007110304949796954,0.0038058020459789594,0.12542133362841898,0.44715775699957444,30,28,73,60,0
0.0006235349217007494,0.003478044089302156,0.1170061608859722,0.39674412444955554,36,24,75,63,0
0.0005918206437843591,0.0030511880747620995,0.10408363976278098,0.35343732539647515,36,30,79,59,0
0.0006820651448407144,0.0028892923383485717,0.10446996141010968,0.31366070252409606,32,22,72,61,0
0.0007591841521983032,0.002603638158984283,0.10574957554545053,0.30134264339588873,30,26,63,62,0
0.0008535338652385109,0.002883254627948978,0.11601158080533734,0.33757552011298975,26,26,67,56,0
0.00089424272548624,0.0028411287623820087,0.1289022898356879,0.3352099321066415,24,26,69,54,0
0.0007877108717968178,0.0032294920725966948,0.11611729861834248,0.34549281518025565,26,24,72,61,0
0.0006727222557645122,0.002894706655832722,0.1139606037300945,0.3383531989596129,38,24,81,59,0
0.0005981667349018618,0.002851792699355443,0.1074338233754597,0.31586335538709875,38,28,79,58,0
0.0006114733165690592,0.0029774393789763205,0.10575985188200286,0.320748592018999,34,22,72,52,0
0.003360697234565873,0.0021113097761904422,0.3303547107378548,0.3243385810806679,26,34,48,69,1
0.003062602197380871,0.002011888777030769,0.3127116618184177,0.3199517060544988,22,40,52,75,1
0.003174644079106489,0.001849097728629013,0.2981158974992139,0.28522879595729866,20,40,57,79,1
0.003223113616227886,0.001990177298144453,0.2983998727259147,0.2975351266946759,22,34,63,75,1
0.003064662016753546,0.0019819741622116656,0.3090798940706604,0.2813086018338744,24,34,62,78,1
0.002944790758185878,0.0018887219897878,0.2908104116784663,0.25881289278300834,22,22,59,72,1
0.0029971225808095338,0.0019685724809021146,0.3002870221057324,0.26121830364749865,20,24,54,72,1
0.0029462145213426678,0.0018691520329337085,0.2987543960551668,0.2807621517129207,22,20,55,76,1
0.0028345978988462816,0.0020420498859821095,0.29804867337973934,0.3012316803801564,24,28,54,71,1
0.002815157831257048,0.0024022944318167904,0.33756917389514024,0.3630700159503456,30,32,57,75,1
0.003777859721183491,0.002431092376129647,0.40002833968841955,0.36149798128148136,26,28,54,77,1
0.003840351793362154,0.0024464232827720663,0.4133484910087987,0.3880439297653376,26,32,51,81,1
0.00437711688015581,0.0024918877923556376,0.4352558364389405,0.39527706681118596,18,28,44,74,1
0.004422916857774358,0.002221997679528569,0.39954100278076826,0.3627864764323482,22,30,51,77,1
0.0038947247670270122,0.0023861758288694964,0.36138368126842557,0.38129134594636876,24,28,56,77,1
0.003653365908699655,0.0027289314692601056,0.34622974313002536,0.41147390729325983,24,28,55,73,1
0.002994984400167843,0.0026044676203008698,0.3154690480518734,0.39985376218052027,24,28,50,71,1
0.0029729260658677478,0.00261291455887773,0.2993771837031744,0.36285670899668687,28,26,53,73,1
0.0032976108172027233,0.0024959098813795324,0.3129958999547016,0.376852560124149,26,26,53,69,1
0.004214266978791529,0.0020292200638612683,0.3706880062512635,0.3402005964464108,26,32,55,74,1
0.004676933493872507,0.0023718399472501244,0.40306189759394606,0.37183198418284386,22,30,55,78,1
0.004520605791984503,0.0022304975517319363,0.399146961871131,0.3702621775456288,20,40,57,83,1
0.004033838754604962,0.0022394450381892604,0.37045918040424336,0.35103422877395357,22,38,61,81,1
0.0037931013980986934,0.0021965271800312033,0.38068642249465257,0.34884032279846416,20,42,53,73,1
0.00364957879786578,0.001924965724664538,0.3587987360846096,0.3168669721460692,16,42,48,76,1
0.00428102648241604,0.002194485076918445,0.39743301509795903,0.34193983896915126,20,42,44,66,1
0.0036137907403342236,0.002580863381901633,0.3573511841106633,0.36386628778940444,18,30,52,62,1
0.0031452201698736536,0.002209742485747313,0.2792276992834175,0.3276049265076724,18,30,62,78,1
0.003574806756490763,0.00238374099773014,0.3171341251900425,0.338457912429588,20,22,60,70,1
0.0034246428005440294,0.0025750254919280242,0.3000701395924629,0.36037337659892915,20,22,61,73,1
0.003943543292765468,0.002922963994182527,0.33537923886831084,0.36866915269475153,18,20,49,70,1
0.003564986813245094,0.00307531093737307,0.3202297545030633,0.38378031842521637,12,24,56,66,1
0.0030250623957210165,0.002688505013333524,0.2768975529999714,0.3559861067410534,16,24,66,67,1
0.0028563938425730075,0.0024641299037277903,0.25217746786196626,0.32640617872491057,14,28,75,78,1
0.0027164804195132296,0.0022240591540822648,0.24540945903006942,0.3012045757696833,22,30,67,78,1
0.0030737078953099765,0.0019371597459368263,0.25297848502718057,0.28675076820050854,20,26,68,77,1
0.002647479957818628,0.002212036887827679,0.23097613365381045,0.32016467246350444,18,34,63,75,1
0.0023587431183550753,0.0022409945247844963,0.22690970871582478,0.33286786703965987,26,28,62,64,1
0.002276408105950466,0.0020237222540518923,0.22599389986473856,0.2955517847467634,20,28,58,65,1
0.001971923790797851,0.0019637914908665153,0.22269797118353224,0.2966517699502269,28,30,59,77,1
0.002333717421904698,0.001824632678152503,0.2502233628449588,0.270208302359144,24,32,59,83,1
0.0024534635416942484,0.0018611318897486604,0.2573207416383217,0.26152610050238734,24,32,64,85,1
0.002404277300088671,0.0020715040868098393,0.2550668162511945,0.27425669103369327,28,26,60,84,1
0.0023970386277651174,0.0020620398298616728,0.2695647187835176,0.25961570495215086,32,30,63,80,1
0.0026389704020378497,0.0022533107878720355,0.26610215161032114,0.27526852442421035,24,28,56,76,1
0.002331450514702376,0.0019166327656272013,0.25872052001414914,0.24527247141745698,24,30,59,82,1
0.0022561490082628082,0.0017807258928677063,0.25658924061956784,0.24205228078790608,28,24,62,84,1
0.0024943318676318377,0.0018803056059098,0.24771868991268747,0.2570508567978529,26,26,61,85,1
0.0021873709864950624,0.0018066774414126315,0.24456710831303036,0.25374163801844746,24,24,68,82,1
0.0009796573715021395,0.0003664440307613369,0.14002046267349968,0.047131677189506165,28,26,63,73,2
0.0009017276521508883,0.0003557402295278966,0.14178863739932757,0.04563484750586039,28,30,68,75,2
0.0009016510363684041,0.000345908814422759,0.13536131042038593,0.04307318048221699,32,32,70,79,2
0.0010643380720493558,0.00036508121494547403,0.14122973508671763,0.04826290696901305,28,36,62,71,2
0.0009763490651374078,0.00042588816494186174,0.14297991223153253,0.05085339355074853,36,26,62,73,2
0.001087420059483543,0.0004471126121820308,0.1413203716875132,0.05291320418050799,30,25,59,76,2
0.0012243530933292964,0.0004741556931433629,0.1549880425721394,0.05668927685773544,28,30,62,69,2
0.0010764601692595638,0.00042836776004480213,0.13807542690983193,0.054230679959924935,30,38,61,77,2
0.0009696228213331639,0.000457549979393977,0.1266250627077678,0.05604457489508644,28,30,68,78,2
0.001547713425914656,0.0010199112412078023,0.19524106647122422,0.09920733278586791,28,12,61,68,2
0.001734174170244828,0.0010539581286312031,0.23665979270547755,0.1054590046252991,26,10,65,69,2
0.0018576299321019917,0.0010391454135603607,0.273738714041801,0.11516484044683205,28,14,71,67,2
0.0020801262221006667,0.0005164232717444798,0.3050947815237026,0.09000256714491184,30,42,63,80,2
0.0017216655553826698,0.00047352206622230876,0.25049972708283613,0.08181007878128901,32,44,68,77,2
0.001558645864662375,0.0004538364423609893,0.22666657018257433,0.07337376306732771,30,38,66,81,2
0.0014012585717275339,0.00048799675565100827,0.21076904289586149,0.06993595653937892,32,32,63,81,2
0.0013337583534689492,0.0004627551140869747,0.2034480479302738,0.06882073065408474,38,39,66,77,2
0.0013464285618300872,0.0004425699950201311,0.1911661779015756,0.06400676647339348,34,32,67,79,2
0.0014153742373707804,0.0004938480532120554,0.19500302919642748,0.06929785809931593,22,41,68,68,2
0.0013518795030977256,0.000515405610085793,0.1963422514145437,0.06511866059978211,26,28,67,72,2
0.0013805255558294186,0.0004549629427425126,0.1917153160608124,0.057469193807807226,28,34,68,72,2
0.0013727828484358462,0.00042529458214868895,0.18907485780337263,0.05593783221108548,32,32,70,78,2
0.0013765773184202651,0.00045799116310628476,0.18553856254109768,0.05561247147411924,36,21,66,82,2
0.001152826982938413,0.0004687790124282155,0.16980393789791612,0.0525090061658862,38,26,71,80,2
0.001237774910309147,0.0004426392348610419,0.18517120264192796,0.05523617774444316,36,29,67,80,2
0.0013240466590790836,0.00045800187828410254,0.19262139838291295,0.0569154340254585,40,34,65,76,2
0.001345519756780965,0.00048535495763856617,0.1818958046915452,0.054403632377600285,34,33,68,73,2
0.0012412805517817156,0.0004197709403140242,0.19162835381505583,0.05320841142423505,36,36,64,80,2
0.0012820251464825654,0.00043575683568488184,0.1942701790169343,0.05517464337899023,32,33,64,72,2
0.0011268156421741285,0.00047295941237339434,0.1780244109185792,0.055443024822356975,32,30,67,72,2
0.001169708555935605,0.00038284868233406726,0.18223202856158643,0.05492228810017056,32,37,63,78,2
0.0011831764239047845,0.0004176936793053396,0.17538072598874563,0.05870468499591419,28,30,67,76,2
0.0010996579759365208,0.0003942822323826463,0.16755056769095772,0.05540124787978748,28,29,67,77,2
0.0011525712643792193,0.00040648364146754696,0.17727084116150246,0.05512268112564505,28,26,66,76,2
0.000995225851204448,0.00042984303537026174,0.16330083131966758,0.05361279316317434,28,27,72,69,2
0.0010323246464596107,0.0004200184958760542,0.15973371680440523,0.05190760412029625,32,28,76,69,2
0.0010249827599117655,0.00042805674372904966,0.15730027639407507,0.05085953173165434,32,29,69,73,2
0.0009920854340400185,0.00039410930359967027,0.15357966429934597,0.0494312221917612,34,26,69,80,2
0.0009531282087288719,0.0004589148595108984,0.14886441737266082,0.04947859572601063,30,29,61,78,2
0.0010537105414234447,0.0004380331771013764,0.14983515483203758,0.05226851729420678,28,34,61,80,2
0.0010478563200138034,0.0004209280339338252,0.13563034266050827,0.05054905480175225,22,39,64,78,2
0.000901851784413749,0.00043641884838443003,0.1214946170954071,0.05252823758370548,26,34,61,70,2
0.000977747094866711,0.00046629780142667997,0.1378616475989166,0.05101905631754131,16,27,67,75,2
0.0008803147356096226,0.0004181144938816257,0.1465403620821001,0.04980351326833968,24,28,70,79,2
0.0009594604428475626,0.00046857693446156104,0.14973510502901866,0.053868646182235934,26,33,72,74,2
0.0011011398584175993,0.00043060180447809196,0.1662004861536886,0.05093126096438749,32,32,69,73,2
0.00111119643029319,0.00041200129760303434,0.15941581017453094,0.05148062851628933,32,29,67,76,2
0.0011467127834542516,0.0003973724195785146,0.15228958500158082,0.050481734566489744,30,26,65,75,2
0.0011297985179277211,0.0003666522946541609,0.14756743081456133,0.05067716035552092,26,31,63,72,2
0.0003639840329876943,0.003380979472960125,0.05330395591071972,0.4950175020036337,34,30,66,70,3
0.000364952167781943,0.0036171829344232263,0.05455740959274089,0.5148272953165733,28,26,66,66,3
0.00039810040400459635,0.003797623744069046,0.057867228078969164,0.5431622961194186,30,28,62,63,3
0.0004660445231720919,0.004352403243593736,0.05727286937596889,0.5931296751921405,28,26,58,64,3
0.0004306553357871833,0.0041066856441972135,0.05764346170291354,0.5781131362406071,34,30,64,71,3
0.00042738448067969857,0.004247543971322417,0.05847205720206037,0.6074334181434285,40,32,65,73,3
0.00044525650177592126,0.004048821209416918,0.05978759775401066,0.6295791562463975,36,38,66,76,3
0.00044279782159283883,0.003727216110931775,0.05866050201459617,0.5697383966948938,34,30,74,76,3
0.0003806041935220938,0.003880735693353365,0.05535796922021898,0.5572672854491332,38,28,71,72,3
0.0005521521743845962,0.003964531295028264,0.06515818346900665,0.5800408116929979,24,26,69,74,3
0.000586710053224959,0.003829774960573286,0.06416654787578854,0.5329025288151401,20,26,72,76,3
0.0005763424111696555,0.004532840493684547,0.06929206772772911,0.6127210298183572,24,30,75,69,3
0.0005247433388666276,0.004441920209548267,0.07681330365040966,0.639373298301821,32,34,78,71,3
0.0005597269927021067,0.004829758148916803,0.08093915673436818,0.6844507302553506,30,30,77,66,3
0.0005524977479644794,0.005342013190799509,0.07967927605902482,0.7347783665986152,36,30,74,68,3
0.0005665157715163433,0.005973395149948519,0.07902255464213782,0.7789874811091486,30,28,69,68,3
0.0005448859620175351,0.00596701792230327,0.07789512798113335,0.7718746442528603,38,34,71,71,3
0.00048814192370612297,0.005524248128296621,0.07050211730429884,0.7128067266048806,38,28,64,70,3
0.0005553729913977448,0.005597616535946302,0.07550280368854378,0.7232380293070665,28,28,66,71,3
0.0005339214028349421,0.005691906665387409,0.07017998678414741,0.6937594949451057,30,30,68,68,3
0.0005110621663854997,0.0051549272529171734,0.06129906334745315,0.6686287859682499,30,34,69,74,3
0.0005941322044434251,0.005238449198875082,0.07463513627483963,0.6934908218732194,34,36,65,73,3
0.0005996644786320398,0.005131112523239879,0.07228609327463235,0.6848023828314239,30,32,63,65,3
0.000603188596941403,0.004905061726841717,0.07834078959092329,0.6893880026569789,32,36,65,69,3
0.0005913026116357078,0.00526123781994564,0.07913633986690266,0.6769449667748216,28,28,62,65,3
0.0005452576579959345,0.005226374565652328,0.07327147927738993,0.6912468308046246,26,30,60,67,3
0.000512733347321208,0.005047445608782307,0.06622359539498726,0.654911524647577,26,30,66,69,3
0.0004578363718984789,0.00468852488901367,0.06559459488426214,0.6287996859174205,30,28,62,68,3
0.0005109341619311355,0.004938841315019242,0.06327240915566613,0.6029940630697468,24,22,62,75,3
0.0004315006898448001,0.004449369847142208,0.05957071765637514,0.6021627279658027,28,32,63,74,3
0.0004160715252677204,0.004463957430364311,0.062135193369368076,0.5946989270714562,32,32,73,71,3
0.00040155461810314894,0.004620327838570831,0.05868926316303097,0.5638252108417505,32,22,73,67,3
0.0003674500756267178,0.004244764591451526,0.05574424321962226,0.53277462256073,32,26,76,66,3
0.00037676838880587436,0.003761764947188076,0.05040911931372745,0.4923751134423024,28,38,77,70,3
0.0004080420582916283,0.003287001506076288,0.04866986537872025,0.4439023467472644,32,32,73,66,3
0.00043153897445464786,0.00359753493498699,0.05107655836502396,0.46266711394432536,28,26,76,68,3
0.0004562266176372272,0.003621946675304823,0.05375327185675156,0.47517874045409,26,30,72,62,3
0.0004234481099561666,0.0033854616896197114,0.05528231348822454,0.4281209600834247,26,28,69,64,3
0.00041778402974876783,0.004142196425630836,0.054141287463720794,0.4703439603281607,22,24,69,54,3
0.00036739119143131596,0.003927104633599821,0.05082891105121631,0.4536874504217896,26,26,72,60,3
0.0003300496570224012,0.0037743889173500866,0.047565936000709665,0.44043317006727994,24,26,75,61,3
0.00034730385352653713,0.003596741327257957,0.04835719585921872,0.4340088757241346,28,28,68,59,3
0.0003740460466816181,0.0034405634082185286,0.04549715035223768,0.4081948877173126,32,26,70,61,3
0.0002891348021836183,0.002833500855759888,0.0419934265305155,0.3861172490137511,36,22,70,62,3
0.00029835222881543225,0.0026215781081206347,0.03967136984628354,0.3741850122043326,38,26,62,62,3
0.00028593916204486003,0.002437384024420214,0.03689019172011459,0.35889494620764056,34,32,67,64,3
0.00029578499279289726,0.0024152418326531333,0.037340822078704115,0.34100193882640584,32,34,67,64,3
0.0003239802111329813,0.0027689184498671227,0.043811491174621846,0.3729232792817807,28,30,66,68,3
0.00035365815761313995,0.0031141326606861897,0.045969200556485,0.39485077709515554,28,26,72,72,3
0.0003544949034012329,0.0008520268623383023,0.03527681025243689,0.0979421774704786,28,28,62,58,4
0.0003212368319324423,0.000811323562660449,0.03416948954866846,0.09941301373440993,24,28,64,57,4
0.0003110803822625086,0.0006894942861724207,0.032788644288901436,0.08453712365567664,28,32,55,59,4
0.00030298639749205657,0.0007080459846479585,0.03265846171103167,0.08079005137823743,32,28,61,60,4
0.0002999919307381432,0.0006982297761956524,0.030252719846664347,0.08250706680444245,30,26,61,65,4
0.00033591433206631513,0.000608050158896544,0.03375359278512215,0.07160300573038045,26,22,60,63,4
0.0003041675429835056,0.0006320738217914244,0.0325319778211909,0.07473982871866758,33,24,61,60,4
0.00028954243288689706,0.0006032214297171524,0.031762262258450476,0.07084061236839598,28,26,56,60,4
0.0003038143085323324,0.000598713708903707,0.03223174010897911,0.06934454496643037,24,26,58,65,4
0.0002703363147774383,0.0005819609294484566,0.028152979633223215,0.0656259521693789,20,24,55,70,4
0.0002552796621408924,0.0005849835982655038,0.0271990434058175,0.06783851459757614,27,26,54,67,4
0.00025709589690118585,0.0006202817580628024,0.027307692906620547,0.06983161644945012,22,32,53,67,4
0.000250678215759438,0.0005858051130755282,0.02820013891247832,0.06424536003691896,25,30,60,64,4
0.00026365427830903743,0.0006192959966882253,0.030096869480391985,0.06832989180796388,24,24,60,63,4
0.00023093665401685334,0.0005897126544163246,0.0296853358442419,0.05785056669645252,33,26,66,73,4
0.00022514950557482805,0.0005315732903027045,0.027613543160428102,0.05925672738368317,32,24,62,72,4
0.00022791018255353027,0.0005228672003400463,0.027368199288087112,0.0581252519075922,30,29,62,78,4
0.00022288058831932526,0.0004723442215345509,0.024713761875447274,0.056355215675910474,28,28,63,74,4
0.0003418708251637036,0.000755672575875539,0.02601620075067445,0.07494313924743227,16,24,55,62,4
0.0008978162308876634,0.0009181847145167839,0.052424687766245655,0.08597980998468364,8,22,48,59,4
0.0014535986938248987,0.000857002828584465,0.0869816314719137,0.0789231417858785,12,20,29,56,4
0.001743646612840934,0.000792697211489974,0.1036669852981393,0.0705691548902577,16,20,23,54,4
0.001700176810390573,0.0006423471808780783,0.10146859099962785,0.05156193318382136,18,18,27,71,4
0.0013786484959582906,0.0004164910720373026,0.0893531726550894,0.03237049067945206,16,20,34,70,4
0.001385039876216506,0.000383065850077513,0.08964921098425074,0.03111722633829579,20,16,32,68,4
0.0013764999790330434,0.0004063211438926552,0.08804284943569742,0.03348607738332622,18,16,34,67,4
0.001376743334721729,0.0003698062400420213,0.08726799199372241,0.03417161650418611,21,18,38,70,4
0.0013918867515221333,0.0003486133329269861,0.0889054107242355,0.03418316808833202,20,22,42,64,4
0.0014193481320563341,0.0003439820955925596,0.09044606698242007,0.03821975335497591,21,22,38,61,4
0.0014341125150675498,0.0003285845410477814,0.09110914695197839,0.03601138826820023,18,20,44,63,4
0.0014574709560236112,0.0003298539213866118,0.09265788545859358,0.03745927187344594,21,18,38,63,4
0.0014774622876677882,0.0003117628410006638,0.09382349382828734,0.0364620117968164,18,24,30,62,4
0.0014655627961410126,0.0003193081088049628,0.09317937639328328,0.032774604262236454,21,20,26,59,4
0.0014987399763464768,0.00031512581646062033,0.09433461435969523,0.03173463713288411,20,22,32,54,4
0.0015295959056193823,0.0003009131119345319,0.09373449965352929,0.03067958881235345,21,26,34,55,4
0.0015337600747512413,0.00035509164552672683,0.09435845616032933,0.0337844775628182,18,19,32,53,4
0.0015639908502427195,0.0004093405934550195,0.09406074893931098,0.036457093118959276,21,18,34,56,4
0.0015531572788852377,0.00043587431349392287,0.09348006754539684,0.03840083808150463,20,24,32,63,4
0.0015549092787628168,0.0004390090614483743,0.09337078023752295,0.03818986684287915,21,18,36,66,4
0.0015926820431263321,0.00038288407584473436,0.09542372177297183,0.041298607113154,18,24,40,62,4
0.0016317850276216545,0.00037458306737110647,0.09557150902723636,0.03792711605129293,23,22,32,70,4
0.001649479250253949,0.0002972976310657333,0.09575146891972916,0.03209277983677567,20,20,36,63,4
0.0016451208474479355,0.00030834919067687866,0.09712994143321374,0.02990137011632549,23,22,34,63,4
0.001647683978366698,0.00030180134140096195,0.09502077897098822,0.028280876803025167,18,25,34,61,4
0.0016276754386216944,0.0003025570199242989,0.09447119271815681,0.030594954972022335,21,18,26,65,4
0.001958695172714959,0.0004340997267109534,0.12426444012457354,0.03925554176224706,16,16,23,57,4
0.0018387963931947521,0.0004474608038340516,0.11803612842848576,0.04176266069431349,12,18,23,57,4
0.0014018131173233327,0.0004793846871760998,0.0889005188684748,0.04085173327175806,8,16,25,51,4
0.0006205902149799538,0.0004542262986926451,0.0497292225215331,0.04106021651981628,8,22,48,53,4
0.0011944395919069588,0.004471787192282321,0.16020402479998053,0.6474411737797647,30,22,76,55,0
0.001119157373333837,0.003920839140407526,0.16324260683251093,0.5709689829235484,24,24,76,55,0
0.0010522025142367304,0.004253417027755436,0.15503715121317793,0.5920654911614284,28,30,78,58,0
0.0010326037046443793,0.0038038874354686457,0.1647731376966344,0.5090526806692675,32,24,74,64,0
0.0010542459508998381,0.0035160008999863906,0.16343174610588654,0.49662348728996825,38,26,73,61,0
0.001041516849432356,0.0037026556460547106,0.1608203468329264,0.518195346114776,38,26,70,64,0
0.0010336045750108747,0.003697260972189661,0.16247891639489062,0.505443012237797,36,22,71,62,0
0.001023111546624528,0.00453352492831976,0.14410742610759714,0.555540135350749,32,28,72,60,0
0.0009278727943222367,0.004367758839240236,0.1374048448326061,0.549374530548817,36,22,75,57,0
0.0009567134453229956,0.0044278127919049086,0.13640593442593957,0.5263111240651869,38,28,70,56,0
0.001064460046559267,0.004502038342325833,0.13380336221903152,0.5332374463368891,36,30,67,53,0
0.0011252691179850045,0.0041089636437636875,0.14696680880140614,0.49531256776224514,32,30,71,54,0
0.001079708158591499,0.003942690088144337,0.151240735043961,0.4595228426684514,38,28,69,58,0
0.0009901710507827853,0.003952122777788607,0.14669684466517124,0.47411049649861675,28,30,73,58,0
0.0009255877763939639,0.004178392349610453,0.14585449911208806,0.46216126476821384,30,28,72,52,0
0.0008635364499253883,0.003972417888591198,0.1331170938058975,0.4607074655236979,36,26,75,55,0
0.0007984847045302213,0.0038498604616323496,0.12461713254268032,0.4626274916508861,38,22,78,56,0
0.0008444454085349135,0.003367789168452605,0.13425721579494934,0.4019813005760586,36,22,78,59,0
0.0008945604742137061,0.0033541140056236856,0.13538305686701238,0.3867120402112469,36,26,80,60,0
0.0009131905374362292,0.003715778621735465,0.14056749023209267,0.40132923327450964,30,26,75,50,0
0.0009620016330701659,0.003671970888206444,0.15410938342552502,0.38745970568242777,32,26,75,55,0
0.0010012011368574186,0.0037825365717065597,0.15605820582053384,0.38269486304129485,26,32,67,53,0
0.0009449524719433944,0.003558810441670154,0.15208143262760368,0.399411898444599,28,30,69,56,0
0.000884414858138029,0.0037186063687739217,0.1428054866753103,0.4197068499002865,36,26,73,58,0
0.003499712906027236,0.0025731041243951245,0.3504401191269921,0.3987685669748983,20,16,59,71,1
0.0036332339297016503,0.0026083689764563995,0.343866493032701,0.38717698232602066,21,18,56,74,1
0.003400537435630036,0.0023835683730505756,0.32762248191084986,0.3498319262552669,12,20,59,72,1
0.003822723826648097,0.002043766196523912,0.3638684809640031,0.32566460363693295,18,30,51,79,1
0.003933620922552539,0.001992102434565393,0.3493809978564523,0.3182581184742379,10,22,43,85,1
0.003933433902614022,0.0019594768546964698,0.36523249822878756,0.3373074669712321,14,30,46,78,1
0.003781422949936256,0.0021117465207474632,0.37264558993245495,0.34778340591926604,14,22,45,77,1
0.003979061838277506,0.0021691616133609096,0.36220572874905116,0.36441599142483655,24,24,52,79,1
0.004272943226349488,0.0025331361950640978,0.42418034895326445,0.38518402595614215,22,24,59,82,1
0.004178104052626246,0.0024266407650417273,0.4297593229112445,0.3759993312707566,20,32,53,76,1
0.004392278146094194,0.0023447677856251363,0.45868478727684375,0.3686192844822352,18,32,51,80,1
0.005203425568935078,0.00220865418043043,0.47229888474480974,0.3675618866563653,22,34,53,77,1
0.004787968976705386,0.0021423230812401823,0.43006321040244655,0.3525342065018392,20,32,51,74,1
0.004896372914730914,0.0019554684580548516,0.4299046076194522,0.32999576411710296,18,32,58,80,1
0.004797076327399024,0.0022193385970177377,0.4105704664911201,0.3369321565440289,20,36,54,75,1
0.00366323399537406,0.001978017698204242,0.38447587573314845,0.29137264519758643,20,36,58,81,1
0.0036859967674858223,0.0021489621958183987,0.367846201962507,0.2984770570175849,20,32,53,74,1
0.0036614435719235917,0.001896924773301797,0.3445758769806847,0.2868858190707725,20,30,48,73,1
0.003348373314533108,0.0016482543955109574,0.3103924002819061,0.27241297819684035,16,32,58,77,1
0.003558120270012926,0.0017086162886690637,0.3007967420025709,0.28244383751473207,16,36,59,72,1
0.003295271574734126,0.0018009822404354606,0.32666727980438864,0.2837393609370555,16,28,63,73,1
0.0033304231025453046,0.0021508206598403333,0.3320016220417579,0.3140757683861628,14,32,57,70,1
0.0038299918427953817,0.002287523371793255,0.36595104150937185,0.3436420913626457,28,34,47,71,1
0.0033951999498148472,0.0022532535942600134,0.35461658989340505,0.33531764660812236,26,30,52,66,1
0.0013367716886311535,0.0004950015007741718,0.17318510067283863,0.061604325220897725,34,40,70,73,2
0.0012757492113422996,0.0004914426006883278,0.17366353137907692,0.06067943415765133,28,30,70,71,2
0.001237987300799814,0.00048234599184035704,0.1685074049821777,0.05848803090794717,22,31,72,64,2
0.001151632828756031,0.0004382749357102877,0.16829686975648678,0.05742151773702087,24,26,74,64,2
0.0011893456343010733,0.00042408981314910415,0.1680155580813161,0.059177771042346526,32,30,70,67,2
0.0010422075196970212,0.0004662667820438158,0.16321058113888792,0.060367485944956646,34,28,71,71,2
0.0010199210108652029,0.00044886598064175764,0.16516040927399628,0.05912521366047394,34,26,69,74,2
0.001163452379236549,0.0004484284479082568,0.161526579118528,0.05699034954916474,32,24,66,75,2
0.00106614810259585,0.00045090070160203375,0.16099503457318104,0.053207508922871266,34,27,62,73,2
0.001108126715915514,0.0004290124163750004,0.1610164617590047,0.050117168222623756,28,28,65,73,2
0.001041766615675954,0.00043930565879939787,0.1571510093972468,0.04719632994366843,26,27,65,75,2
0.001021047059628209,0.00042509375690626876,0.15761338400727296,0.048384036314399276,28,24,61,80,2
0.0010044390827515057,0.00045789266592911784,0.1466697196635335,0.04659754833202662,30,24,60,78,2
0.0010628731405586964,0.00042382191073477433,0.1409124585038626,0.051124331399973126,30,24,67,78,2
0.001011016798994864,0.0004002552556202541,0.14347879401918237,0.052511547505319195,34,32,72,78,2
0.001075359835866187,0.00037914850662022754,0.14031246752896528,0.05213905340685307,26,24,73,82,2
0.0011357246244119942,0.0004468384491833054,0.15175780603661465,0.054770727626333005,32,32,74,78,2
0.0011254464755685414,0.0004351375485323734,0.145722386561307,0.053479531108804525,30,26,69,78,2
0.0011666302287818926,0.0004610462528343584,0.15620715743582045,0.05240282952443909,38,38,62,69,2
0.0011911720668279183,0.00043105618887567733,0.16107062129158403,0.052213492745242646,24,30,58,73,2
0.0010177106165769972,0.00043247932221532706,0.15328952753189537,0.05290464864801445,20,30,65,75,2
0.001039780945094582,0.00044051302170460146,0.1596524522586268,0.05313052819166874,22,36,63,71,2
0.0009599674430184171,0.0004670897917291807,0.14172959531733365,0.052273681012121806,22,34,63,75,2
0.0009898737457698886,0.0003900256971473427,0.14573580965931932,0.05048422966243469,28,28,62,74,2
0.0004972197083651604,0.004688258952769087,0.07090916002366825,0.7557733860865544,16,18,69,73,3
0.00046258345272767113,0.0044569978379211655,0.07031280169733299,0.7102008530331547,27,19,72,71,3
0.0005376443212358526,0.00444736061113371,0.07360089801922978,0.708551212442249,20,24,73,72,3
0.0005329540476630344,0.004510748849073789,0.07312518050565327,0.6936619304823254,31,30,71,70,3
0.0005131926840034832,0.004243446231632366,0.06824457300107067,0.6178311271344916,26,26,64,66,3
0.0005312302655608799,0.004445332501619675,0.06734581588754131,0.5951503133852548,29,24,63,65,3
0.0005433272771736535,0.004539479535578022,0.06937696207768511,0.6096221011109427,26,26,60,64,3
0.00048622893056031604,0.004182495492630913,0.06433500344171765,0.5667682031407508,31,24,61,63,3
0.0004438326292084622,0.00391450755976648,0.06367009781620776,0.5519496710125293,24,26,63,69,3
0.0004388071167995096,0.0036341109559272578,0.06309073253061014,0.5122778028020584,33,28,62,74,3
0.0004083181259699533,0.0030250214708744862,0.0577314702087255,0.48977119653504064,30,26,67,72,3
0.0004162648273625981,0.0034459444596129036,0.06047345105757097,0.5093390868651761,29,28,66,64,3
0.0003864205449728806,0.003498495516371945,0.057283356529448964,0.510371924107832,26,38,68,66,3
0.00036515534721236437,0.0035953651884935173,0.05248773714251735,0.4877784445236004,27,34,67,64,3
0.0003668308477496082,0.003494566971591012,0.05059670243132772,0.4728290453133991,22,34,67,68,3
0.0003607754911869021,0.003179828143844241,0.049376551662123756,0.4469384460379316,23,30,62,71,3
0.0003636031184941045,0.003477967793011698,0.04922611510386559,0.4296797584144204,24,36,65,69,3
0.00037081495956281274,0.0037469224012269286,0.04890722708887547,0.4410985189219487,23,34,68,75,3
0.00039331455332308946,0.0036393939489572907,0.04791079287471303,0.42319032967456166,24,34,65,74,3
0.0003785745895648815,0.003366096476956041,0.045581839108006644,0.4261993460241898,23,34,73,71,3
0.00035166797047166,0.0035562377214305428,0.0453348511060262,0.46493064982452414,22,34,70,71,3
0.0003749709630330202,0.0037359742538159023,0.0462551782606444,0.46203312170889055,25,30,68,75,3
0.0003275726036048268,0.00314669498469186,0.046665933977200307,0.46966759077912806,20,32,70,79,3
0.00035036095249680563,0.003326206521819548,0.05089911454883097,0.46723156481531053,23,34,65,70,3
0.00013865318148488482,0.0005304193321944001,0.012978962924121342,0.044187382531590165,24,22,62,46,4
0.000142839492237523,0.0005474959763646764,0.012545598238128524,0.0458205073249811,24,18,60,52,4
0.00014903545605166578,0.0005016389164092461,0.011810259290255599,0.04253520680982298,32,22,62,49,4
0.00015435078851335553,0.0005420040790226636,0.012069655285149911,0.039332261358350565,24,18,64,55,4
0.00015142438625253136,0.0005119136160903234,0.012385659333502538,0.03598472603586923,22,18,61,57,4
0.00015530000928337266,0.0005693200424161692,0.013710527488043371,0.042976132190136365,28,20,64,45,4
0.00016006323082481917,0.0006028626456330123,0.013829724008131242,0.04393583851367179,26,17,62,46,4
0.00017372132524722282,0.0005410521893845217,0.015965322057483404,0.04380736758074321,18,20,56,49,4
0.00018450431064293414,0.0005154601792299964,0.016032622885290154,0.047599430456863594,28,25,61,55,4
0.00018943177340058646,0.0003956297651259308,0.018530300273206922,0.03713352223746495,16,18,52,59,4
0.00038806540724280794,0.0007596690361306036,0.0300618596861002,0.05792573666925996,26,24,56,56,4
0.0004209430292216775,0.0009184825435656116,0.03346219627679328,0.07669553053495835,20,24,64,57,4
0.0006726664230354322,0.0014051366633986507,0.04315370348728088,0.11433167281975253,26,26,56,60,4
0.0006240476735737142,0.0016883882034036005,0.041940517033344095,0.13774053008210732,24,20,60,52,4
0.00044790684477861705,0.0016513296498086615,0.032816468990319723,0.1508649557349619,24,22,72,56,4
0.0002764509353517287,0.001426482291495354,0.02622641408462921,0.13624916393461775,26,12,64,60,4
0.0004205596287760263,0.0012949279125601925,0.03242400876670091,0.13698314386147573,24,13,62,63,4
0.0005632625952148144,0.001181934396317675,0.040579512438464055,0.13338605265004144,26,20,56,68,4
0.0006091770316505741,0.0011885062446916489,0.04507967313509039,0.13334344796645384,22,22,55,69,4
0.0006262117228250533,0.001029200006214266,0.045754638338667976,0.12136320398662799,22,26,56,63,4
0.0005306903323051491,0.0012643112340784781,0.04119002132127768,0.12029201569266529,14,28,54,65,4
0.0004837604034450885,0.0012353588831412353,0.0362926831081957,0.11845167622835756,20,20,57,62,4
0.0004692449175122883,0.0011589102422498564,0.0357349148556001,0.11455521315419775,20,24,62,58,4
0.000396465331556401,0.0010807433974774972,0.03325827661815158,0.10934822984466924,28,20,62,61,4
