f1ch1,f1ch2,f2ch1,f2ch2,f3ch1,f3ch2,f4ch1,f4ch2,Category
0.00010661820152661456,0.0001144705974448141,0.00944344255832797,0.011683147431119215,23,24,52,72,0
0.00010534525194732717,0.00011697565327501419,0.00981487776799626,0.011473854339050155,18,22,62,67,0
0.00011530592132221834,0.00011688508378774435,0.009703317458565794,0.012216146696641061,21,20,60,67,0
0.00011786535008238648,0.00024849904277596545,0.01097063382964531,0.020411957902253995,20,11,68,66,0
0.0001398594734683288,0.0004048522383815803,0.013417637340774972,0.03475313952371008,25,12,68,56,0
0.00025145269239601475,0.0009462609745179355,0.02896291358279471,0.08283894857420178,20,18,66,43,0
0.00042235077096345616,0.0014055264337987598,0.0529923883813712,0.1212378797720083,14,14,66,45,0
0.0011695037667936049,0.0018674565694116602,0.13761038236486595,0.1576206925222669,16,20,62,46,0
0.001818801096790731,0.0025718346813142262,0.21102684236620659,0.24054600951873883,20,28,60,50,0
0.0021403790820316,0.0028611844553510083,0.2539554703027178,0.3040177744726266,24,28,63,58,0
0.00244025123001445,0.0034264313444477266,0.2859274128044348,0.3809870752708582,24,24,57,55,0
0.002204699547624979,0.003472310463077293,0.2640716534765084,0.41341520114048447,24,24,61,51,0
0.0017553974483236051,0.0033176097001424627,0.22430846895269535,0.41135117883062633,30,28,67,49,0
0.0017733918769588211,0.003374792868792749,0.22088033128470272,0.36538131937023866,30,22,68,50,0
0.0017731585839852392,0.002619661671212639,0.21656222337937167,0.2974578218852577,32,26,69,59,0
0.0018434558634793227,0.0024558110206608728,0.2311587516580062,0.27851780400876064,28,26,70,59,0
0.0018244848049600484,0.001995820983088873,0.21448104415766228,0.23531765687737546,26,28,68,71,0
0.0016964835450327875,0.0019008084809439643,0.2040018364685552,0.24010588968422267,26,24,71,61,0
0.0015014159960719505,0.002070893363161097,0.1903042665284097,0.2552207569498088,28,28,69,59,0
0.0013061560905752354,0.0020423353716945754,0.15546702697796988,0.24283276922243624,26,32,80,59,0
0.0012769657674997718,0.0024416944401752403,0.1579931680727534,0.25804188783084286,28,26,84,55,0
0.0010494128701366728,0.0023762580455013766,0.14133325901604787,0.2364037545811179,34,20,86,58,0
0.0010061638134374643,0.002291251428587457,0.13797208587935797,0.22453137273815144,30,28,84,54,0
0.0009784157814550073,0.002155744773709012,0.13747218690034999,0.20803057879941597,36,22,77,55,0
0.0010322300589371784,0.001739902431987737,0.14279470150578158,0.1973681397949414,34,28,71,58,0
0.0010157880022375499,0.0017639019761463057,0.14224600271705165,0.20689394738103803,30,32,69,54,0
0.0009500909716425187,0.0016951969464237889,0.1373620086122249,0.20123862501064482,30,28,71,58,0
0.001185387042681971,0.0017375077663317638,0.1528005289486045,0.20728350135948453,24,26,74,53,0
0.0012314953041991758,0.0017100847696619103,0.14061237337978805,0.18614008455740996,20,22,70,56,0
0.001189376147518178,0.0019396440966500206,0.15474015613753275,0.17347155557921534,26,18,71,59,0
0.001171290213451157,0.0018210960014054848,0.15922627115290192,0.1788774803322863,28,24,77,54,0
0.0009768594216046146,0.001847300971787285,0.1342226508263232,0.18285891249273833,32,24,74,62,0
0.0010152385579234589,0.0017430734435331286,0.14468205281968324,0.18480207632847898,30,28,75,61,0
0.0009274633604198104,0.0017665747892019687,0.14041377531045468,0.2013903501899639,34,26,80,65,0
0.0010562821980813252,0.001675567421165955,0.1417853106195242,0.2010875120088323,24,32,85,63,0
0.0012215898149839164,0.0016875798643215022,0.15384041363520107,0.20394507964067438,20,28,78,64,0
0.0012648958564333884,0.0019638715352276225,0.15054699630527438,0.22945840905707324,22,28,77,61,0
0.0012348978444980396,0.0021532016046886373,0.1449114136429801,0.22118685180879127,24,20,82,54,0
0.0010628560274569732,0.0019691681268813755,0.13441475026964397,0.20454504230981796,22,20,80,61,0
0.0008607799379774191,0.0015602019455043796,0.10313301254589746,0.16115133278628668,24,22,66,55,0
0.0006353550323585435,0.0011916669878879274,0.08011110216441708,0.11561686067611984,24,20,57,54,0
0.000518690387265907,0.0008834583430920259,0.05183351929053084,0.08565693423072478,27,20,46,52,0
0.0004323158364458631,0.0008981696298544172,0.03656264602904871,0.06246736064321435,22,12,45,52,0
0.0004633813925391674,0.0011055638391196984,0.0482611519176524,0.08529122058341745,25,18,71,56,0
0.0007299850636396961,0.0013454373615437649,0.07009423152440514,0.113165561375277,18,16,71,65,0
0.001036474533959737,0.0019483624163805738,0.11505052885898923,0.1767226338854084,24,14,60,62,0
0.0014101526377663625,0.0023798215141774327,0.1538695318638568,0.23212125717968912,16,20,69,56,0
0.001551536278711332,0.002558556461112374,0.17778251118354393,0.263720817249224,20,22,65,51,0
0.003580185808636459,0.0032061072709119657,0.4006348328320315,0.24366303733390782,20,20,65,47,1
0.005616046785435039,0.0037897120711178366,0.6576824587314485,0.34759090750301824,24,22,61,51,1
0.006561328950469524,0.004552830335662579,0.7651704489691213,0.44354908517482605,26,26,65,54,1
0.0062594190974347465,0.005587103173036576,0.8153611324419962,0.5495354090677766,26,24,64,57,1
0.006440275498278568,0.006724150848439538,0.8225091302200999,0.6406216369305914,26,28,65,55,1
0.0053790441615478,0.006754576781668018,0.6980395430851754,0.6425853253066629,28,28,72,52,1
0.005924648509261004,0.007853204283972456,0.6914280841588086,0.6659461458470307,24,18,67,45,1
0.0052540683710880455,0.006996262803640505,0.674369577843153,0.6068629466614693,26,22,63,43,1
0.005391426059630158,0.005857403684947037,0.6584988154633271,0.5276384341115697,24,24,64,45,1
0.005830416943482789,0.005694702118358725,0.6906820492247226,0.484480406070295,28,24,57,52,1
0.0055455346492471035,0.004414750958170981,0.670767680750641,0.39347208302942854,22,26,57,57,1
0.005907618939776367,0.004241847686620261,0.7148605921333331,0.3715028119203351,24,26,62,62,1
0.005862185455920138,0.00421380704859181,0.7089558131427928,0.37618331500124763,32,26,63,57,1
0.005084622126662105,0.003842056041916778,0.6505485878933961,0.36274510628492157,36,20,63,60,1
0.005596167060832213,0.004087094649368772,0.6817692360306149,0.4069764114055819,30,24,63,54,1
0.0050543740024195545,0.0038728416442940063,0.6117123891230105,0.3735380710793236,30,20,72,54,1
0.004783940837763079,0.0039036423288803107,0.5742377248451994,0.3846457388961668,32,24,70,53,1
0.005328157032645197,0.003860581595062694,0.631211716014449,0.380644370110801,18,20,66,48,1
0.005029198767129637,0.003670554614795802,0.6109746313631089,0.3606116870687251,22,18,66,48,1
0.0044986242209238605,0.003239996598556065,0.5508981504992018,0.31594825026545625,26,18,60,53,1
0.005436637768531824,0.0033278430716437196,0.5849884472560308,0.31268111446000146,26,24,56,51,1
0.004485795282510134,0.0024413710524944766,0.5270858929574361,0.25250286418504847,22,22,56,61,1
0.003899714512135598,0.0021618872414608404,0.4832173008351873,0.23408140989989057,20,28,64,67,1
0.004222028008083895,0.0023337103835148173,0.5343339089418294,0.2471562919087578,20,24,57,60,1
0.0036344013879726876,0.0023724120947130954,0.46959730347083245,0.2404005534658614,28,20,62,67,1
0.003480969168958034,0.0024713449546589117,0.43191663762272575,0.262249539757295,30,22,61,60,1
0.003991520542221113,0.002755226281314996,0.4523284635747636,0.2843059662060716,30,26,63,56,1
0.0032642802367623337,0.0028183088339474656,0.41009693666898706,0.2898381794559897,28,26,69,55,1
0.0034117575320317057,0.003572914409127709,0.42948362564396947,0.2904672090524918,30,22,74,56,1
0.003611617625219311,0.0027883551444493333,0.4264293851232273,0.26153704413610607,26,26,68,62,1
0.003509654866338498,0.002454909976623186,0.4169877470140535,0.25498105030982404,22,30,75,61,1
0.003456221129107901,0.002374143351779534,0.42232891541607925,0.2449951408219987,28,24,69,66,1
0.0031222140242445112,0.002508347636796054,0.400663392091246,0.25983633039125914,26,22,68,62,1
0.0032627057279998608,0.002461136578149546,0.44738028445143285,0.2770088371546736,30,22,68,54,1
0.0034956557260646605,0.002533392516697355,0.45157440033573754,0.26047378027656154,30,24,64,60,1
0.0036150249867669916,0.0026224555698158136,0.4348620482773115,0.24281738366351413,26,20,68,50,1
0.003605910592114467,0.002429492739221831,0.435141548889318,0.2295625743555329,26,18,59,56,1
0.003356900690418838,0.0022712865642892923,0.39070525635841524,0.20927033574779683,26,22,60,62,1
0.0035049157196911816,0.0024023813395955993,0.3710716567829936,0.21166798468052575,20,22,55,61,1
0.0034342608355091976,0.002792772582806943,0.39521026926100944,0.26377894313681527,26,16,55,64,1
0.003498852649612019,0.002902307483418234,0.4146682205760405,0.2787664854903059,28,16,57,57,1
0.0034350214646471865,0.002780028359804813,0.42248988992604214,0.2814349516100165,30,16,60,58,1
0.0036208484083715704,0.0029213148873103566,0.41390819359711284,0.28928603565135186,28,16,62,56,1
0.0037446600712572305,0.003283739691580423,0.42273819301388416,0.29975777004788684,28,20,60,47,1
0.004109685552514787,0.0032222211614497624,0.42594668743591524,0.3093202057373856,22,22,59,53,1
0.0038115510907884027,0.003176865784179724,0.4056658358820356,0.31837725064322947,24,24,54,47,1
0.003505754589803882,0.0027066811201623847,0.40795507155594307,0.27514049913395855,24,18,55,42,1
0.0032735295642313863,0.0021765584022123852,0.3665478372142864,0.22438817853127294,26,16,55,54,1
0.006424389951990425,0.000545020327319785,0.6701667264937567,0.07029929876497783,24,36,53,74,2
0.007600329329434349,0.0007167903375597196,0.8483893303733319,0.08950636281055854,30,38,61,74,2
0.009238135215728143,0.0009146949816318488,1.0297450218500745,0.10261439270599332,26,34,64,73,2
0.009619424609401104,0.0009525889256224386,1.1381654277141473,0.11831221868209586,32,34,66,73,2
0.009104751533870708,0.0009980779885120788,1.1215798520399511,0.11875027866646397,22,28,71,80,2
0.009870361157538754,0.0009988931877330889,1.299981277139456,0.13204985057780397,26,34,66,69,2
0.008793399242201344,0.0010162532997225501,1.2567869946859187,0.1404198129228467,28,34,64,73,2
0.009112045114273942,0.001040589329589212,1.363975120995244,0.13483136763439152,30,36,66,76,2
0.008383629305258915,0.0009786928286296597,1.3497908033362231,0.13719879150601735,32,34,66,75,2
0.008471304281757875,0.0009147941627335647,1.2161580794136122,0.13184066600939873,26,34,67,79,2
0.007947376138455807,0.0009507632681716177,1.2145505637751521,0.12383718462473417,30,34,66,86,2
0.00767911573471899,0.0008059295215214332,1.1122618679410057,0.12355159946363856,34,32,67,84,2
0.0069974063822376064,0.0008017698572862096,1.043441389134316,0.11838754454950462,32,34,64,85,2
0.006887749928500795,0.0006826626138281375,0.9610512121147264,0.10291476154460322,32,36,66,89,2
0.006512194127985395,0.0007512005045606436,0.888622528858994,0.09591039309190455,26,32,62,83,2
0.005333903809392746,0.0008168460854522679,0.7492907896486778,0.09309940330111802,24,30,65,81,2
0.00528928233579859,0.000894549855704084,0.7863331375687972,0.09441120278926252,30,24,67,79,2
0.004483897888250407,0.0008789718720065092,0.7077698428722066,0.0917510286932993,36,24,64,88,2
0.004055828728307159,0.0007516354054806947,0.6445227476573722,0.09122069549525516,34,26,73,82,2
0.00397061075908284,0.0006830686603455031,0.6711643973010615,0.08838155529465345,32,30,67,84,2
0.0036384427214524824,0.0005257344584557296,0.5989579197263478,0.08276567833561238,36,34,64,87,2
0.0034959102819572575,0.0005757452782488267,0.5809514490027613,0.08707702865908168,32,36,71,85,2
0.004001896520099094,0.0006345029485284894,0.6285023490727606,0.08530702528237609,34,34,73,81,2
0.0038942133817736753,0.000568199948391183,0.629712842626963,0.08124588363492237,34,38,79,80,2
0.0039024096602135573,0.0005698642955504143,0.6573078326168222,0.07901524398796023,36,34,76,78,2
0.00434771687357121,0.0005029109878355551,0.7429582808266855,0.07608464879469976,42,30,69,79,2
0.0038212427486530405,0.00047665067817004395,0.6457137570299407,0.07258752900196022,40,32,74,82,2
0.0038940144719523777,0.000477036111600458,0.6111400178277128,0.07337765955358327,32,30,71,87,2
0.0036846216905482895,0.0006469913000836803,0.5696791327661884,0.08026626422141508,30,34,76,85,2
0.0029395777697479365,0.000598528338805357,0.45625284536157185,0.07681039412528103,34,30,80,86,2
0.0031535732572323142,0.0006638512341537803,0.4871558327302066,0.07864897669103885,38,22,77,80,2
0.003192322454057695,0.0007021665981257059,0.5096010394922098,0.07872818439805662,36,18,72,77,2
0.003169111137892272,0.0006116502214335027,0.5002025404560099,0.07264037474795085,32,26,75,83,2
0.0037161449760102516,0.0006384929258714735,0.5342636581545716,0.07719791085526619,28,22,71,76,2
0.0035776208205350267,0.00055158204949865,0.5224246703835633,0.07556159192574757,28,24,70,79,2
0.0036049588254369377,0.0005964613083113668,0.5081063243931361,0.07698214032598237,36,26,67,81,2
0.00346661227209175,0.0006428790413070863,0.5304743899256339,0.07962300164374847,32,20,70,79,2
0.003527913048609765,0.0005936815954038885,0.5124826871935103,0.07738912222372697,34,22,72,84,2
0.0030342600303099702,0.0006265515362632899,0.48502385243525137,0.07573959925628167,38,26,72,88,2
0.004316738268768791,0.0006845691735357256,0.6032968144040257,0.0860475032501546,28,36,72,78,2
0.004867000810335999,0.0007045862642325021,0.6949423609624706,0.09321641617447755,24,34,65,78,2
0.006818809285704805,0.0007687870968173739,0.8292537648550807,0.10717037995287979,24,32,59,79,2
0.006428863459542629,0.0009064131190185626,0.8946252807497862,0.1157709726178434,28,31,64,76,2
0.005781904128242615,0.0008915741363664441,0.8104427311477272,0.11514010380282524,34,32,68,75,2
0.005552292455615969,0.0009072819669674183,0.7559800590440556,0.10784797775699748,34,34,66,74,2
0.005561038414845322,0.0007658719983067683,0.7418831104908965,0.1034667402846613,32,42,69,74,2
0.005221910424461945,0.0006246487505966816,0.7064694054918303,0.0968687431866809,34,36,65,81,2
0.004612951200239689,0.0005252985057124786,0.6450995144049105,0.08488954861061285,34,38,68,83,2
0.0010125831363700765,0.004492185820869126,0.1288310932833159,0.5011520080952643,20,26,70,51,3
0.0010110404530978999,0.0037429289200692213,0.14111512723749497,0.4757521564551849,28,32,75,65,3
0.0010302115782382661,0.0031175030454511903,0.1510207067004691,0.40841470733791807,34,38,76,70,3
0.0009293625107413353,0.002635344653994202,0.14451476962210658,0.3740637779231301,36,40,72,68,3
0.0008665543030770342,0.0025147334118395454,0.13203211338071197,0.3794982493258014,44,42,72,72,3
0.0010027890689331025,0.0026744450623060463,0.13907059643394468,0.39187825456467706,36,38,64,71,3
0.0009548439960370625,0.0026929095870018684,0.12922046640683815,0.3871195941737644,34,38,67,74,3
0.0009248908450228617,0.0028710616578689822,0.12890640939156334,0.39727154730943365,34,28,65,73,3
0.0009494119514851776,0.0026437649832064002,0.12421777413799585,0.38728076841785264,32,30,62,79,3
0.0007747635669566697,0.0025410403492734917,0.1089713011880276,0.36668197542190406,30,30,65,84,3
0.0007683109844576631,0.0025178306235394904,0.11038143957985276,0.3698025589851704,28,32,66,84,3
0.0007085983256708685,0.0026312062542707348,0.10647692075256947,0.36573995807109266,32,32,70,73,3
0.0008507544995440632,0.0026282641362851905,0.1084788653748852,0.3751584489506065,34,34,63,69,3
0.0008340755084062601,0.0024005273758944626,0.11760843115170024,0.3694013086527881,40,38,70,66,3
0.000771895630607416,0.0022776264230091724,0.1174909018303549,0.34420987436880507,36,40,70,64,3
0.0006772272128840502,0.001982410198806099,0.1068142793783895,0.2978889040382784,38,38,76,72,3
0.0006115870026558618,0.0018162875210732956,0.10419008308371787,0.2745303440626227,40,38,75,75,3
0.0005506223716091138,0.0016328375251575885,0.0964490373240058,0.24688752984096132,44,36,79,78,3
0.0005701927072231115,0.0015921265933797064,0.09653387087007045,0.2440385206729879,38,38,83,81,3
0.0005558212162238247,0.0016384713020298155,0.09428582725121988,0.2463960784457951,44,34,87,80,3
0.0005962333984249512,0.001598418338913382,0.09514758608864275,0.25241647455910454,36,28,84,77,3
0.0007197282272812228,0.001671866688070327,0.103398563501354,0.25245009577252103,34,30,78,77,3
0.0007049091567269904,0.0019845798226986637,0.10059811840418172,0.27323816520284366,34,32,78,75,3
0.0007759073825713696,0.0020422807794162083,0.10929893408222847,0.3055165982541453,36,32,71,73,3
0.0008815914887609949,0.002285184572591176,0.11948438374534706,0.32088081007758057,28,32,74,72,3
0.0007522291607936009,0.002277189683505706,0.11113770416538703,0.34028859943656947,36,38,81,67,3
0.0006935434567269805,0.0022078818055098048,0.1092044372967149,0.32690956427020623,32,34,89,66,3
0.0007498817052058662,0.0022387455117201956,0.1066597249421751,0.31692151425976384,32,32,84,66,3
0.0005856473056497586,0.002080791645709717,0.09116154636482998,0.2828190556153239,40,32,84,67,3
0.0005601550782017425,0.0019195025259146651,0.08800424759586632,0.27387533578374695,40,36,83,69,3
0.0006352334658497244,0.0019436690935413258,0.09089376014460251,0.2722673391189457,40,32,80,70,3
0.0005637545872514176,0.0018289385167418707,0.08164944814578684,0.2602268160666927,40,32,82,75,3
0.0006498983163967808,0.001985979757372492,0.09015109704837508,0.2741075082611544,32,32,86,78,3
0.0007033072549991873,0.001990723295895043,0.10067232004672408,0.28043419700755906,32,30,89,78,3
0.0006698330637372719,0.0016923981368866404,0.09391839666418601,0.2607742603080945,36,38,84,76,3
0.0007133857208949544,0.001689534377766883,0.10324438631721558,0.259774794138698,36,38,77,76,3
0.0006459190596140127,0.0018025572010771987,0.09520193425435955,0.26254279043835765,38,34,71,69,3
0.0005374247686881038,0.001537878774728511,0.07778430313479084,0.2152104237888168,32,34,70,70,3
0.0004690947949797729,0.0016820253835205467,0.07373078691176624,0.24386578739954748,42,34,73,70,3
0.0006048839518605977,0.0022521274953299034,0.07179270509449194,0.30895130191110487,32,30,69,65,3
0.0007415277093207119,0.0031121116995861974,0.07493636590243603,0.40874186154223596,22,24,67,59,3
0.0009095200050449677,0.0038280060172981036,0.09271225493657916,0.4917493400978116,22,26,64,52,3
0.001181313694922426,0.0048541832298848,0.12101001479721818,0.5393390716626054,24,26,66,52,3
0.0011198428124548705,0.0044315963076225345,0.13924669565575085,0.5314844399789911,26,32,72,63,3
0.001133121880919383,0.0038791040150019927,0.15481727777621432,0.4727702024927335,36,30,74,65,3
0.0010094644785254227,0.0038816643723984974,0.14873777014455317,0.47437233581683524,32,30,77,67,3
0.0009990362027267753,0.0032066471818368737,0.14268075811491462,0.46446805164365496,36,36,74,64,3
0.0009389756797708207,0.0030462273195344318,0.13661157693695847,0.4440835246501376,34,34,77,63,3
0.0002690547575015674,5.04288693932214e-05,0.017932652442937985,0.008375785863811292,12,40,43,72,4
0.0002963267728939445,4.698344494930905e-05,0.019505411291269502,0.008183146080578895,18,40,41,74,4
0.0003203834711433327,4.962736496038943e-05,0.02123670880692529,0.00833354033968811,21,46,40,74,4
0.00032118569112206326,5.3445346503855645e-05,0.02110474058094579,0.009136798504590761,16,38,42,70,4
0.00031948964282737955,4.768526189300133e-05,0.020988965987643927,0.0074590345703625886,21,38,36,69,4
0.00031789279356072593,4.7889867487194886e-05,0.020755942610704615,0.007831154557952778,16,32,34,67,4
0.0003140594114891305,4.7500413951928246e-05,0.020473806879908702,0.007872919153710783,21,38,36,70,4
0.00031052080720240935,4.4310811278848694e-05,0.020241928943935485,0.007179441240318262,16,38,32,74,4
0.0003069922977784925,4.652174922381415e-05,0.0200056090862951,0.007633871048629159,20,34,30,74,4
0.00030332543414736076,4.325215658928564e-05,0.020040032271216347,0.007102649368708706,16,40,38,79,4
0.0002998148945947963,4.541942820265211e-05,0.02016509064835664,0.007585036629484746,20,40,28,78,4
0.0002987139824564453,4.176310065122362e-05,0.020352530579262392,0.006560329246541228,18,42,30,75,4
0.00029711529851876784,4.0306309544761504e-05,0.0205159929619806,0.00648508205140158,20,40,40,75,4
0.00029603698808786897,4.3907338713737625e-05,0.020548015883645413,0.006617419293267613,20,36,32,67,4
0.00029654069306389634,4.070238693195014e-05,0.020723171319123986,0.006216341970923383,20,40,28,66,4
0.00029539205238609303,4.3942604665461826e-05,0.020670670580913424,0.006543439230113187,18,36,24,72,4
0.00029446983357594905,4.39283384075521e-05,0.02065271951547861,0.006941614745519772,20,36,22,75,4
0.0002938832682169891,4.117582782497732e-05,0.020622364994937255,0.00647019099958937,20,38,26,75,4
0.00029279669339909954,4.0029938071827186e-05,0.020778785207340642,0.006508456231618769,20,32,32,80,4
0.0002930101294503048,3.93641327334142e-05,0.020826742397493873,0.006476696983247068,20,36,30,75,4
0.00029419686841532385,4.2376336210129584e-05,0.02096588167463499,0.006188174409743138,18,28,28,74,4
0.0002945050952495283,4.420754496928171e-05,0.02099432504598423,0.006751008501220767,20,38,24,72,4
0.00029523582617217036,4.630254236152374e-05,0.021105287630573302,0.007176715542402746,18,40,28,69,4
0.00029745250085173506,4.408438323332342e-05,0.02099141894087659,0.007164792088988969,21,40,26,72,4
0.0002992607856579123,4.365014351429968e-05,0.021057471461460663,0.007339513574174893,18,42,24,68,4
0.0003011010502358675,4.0080060395863016e-05,0.02130066399444621,0.0071196481378758445,21,38,26,66,4
0.0003019263328787039,4.1761924464891997e-05,0.021351655897331012,0.007252991124066995,18,42,24,65,4
0.0006087802506844986,9.698366780809882e-05,0.03951534198813931,0.009406400042694415,20,12,21,69,4
0.000943299457749312,0.0005063281823584742,0.0538067987705019,0.030539486658177368,14,9,23,74,4
0.00090481472987989,0.0005550498633837269,0.05135363428523804,0.03178068279367028,14,8,27,62,4
0.00080188663777222,0.0005202139833207527,0.043454665271661794,0.030898501833937456,10,4,29,64,4
0.0006400111163686391,0.0004962743552183043,0.03485104642885861,0.03079890465786385,6,4,38,65,4
0.00034430928407596566,0.00013001324722058426,0.02172383721028342,0.01434442842523599,22,28,46,65,4
0.0003483086572622205,0.00013922810846177266,0.021599646273333297,0.014785999359594633,16,24,44,61,4
0.0003512697606741913,0.00016824073985033272,0.02197491919042506,0.01622100910182695,20,20,49,58,4
0.0003479157768957027,0.00017800125768984736,0.02193173739704727,0.016695613178703474,18,18,45,61,4
0.0003400418704896275,0.00015077915185731682,0.021312828237958385,0.014382594216428818,18,20,45,64,4
0.00032923149833295084,0.00012981813465824302,0.020767230576240858,0.01355633266244102,18,24,45,73,4
0.00031956830302127414,9.556005646396373e-05,0.02074718160045795,0.012015148879334454,20,36,41,83,4
0.00031519813000404744,0.00014495511953622705,0.02047977674746743,0.013964402277105223,18,20,50,72,4
0.0003132109880151151,0.00018026351720238664,0.020563199923940605,0.015372739724813877,18,22,42,72,4
0.00030974754027116225,0.00017755408029559205,0.02054190709137599,0.016025869013427018,18,22,43,75,4
0.00031537246455159583,0.0001560410107033559,0.020397629557623212,0.01472118868737245,20,18,41,70,4
0.000308907535273736,0.00010585699226364209,0.020105657184714108,0.01251123954393022,16,26,38,80,4
0.00030506161282049327,8.884673822211383e-05,0.01969683200455264,0.011189452094189832,20,34,32,80,4
0.0003003608670044549,9.335698880170358e-05,0.019367373961105352,0.010773162840785815,20,28,33,80,4
0.0002978093532788591,0.00010826865696728481,0.019306169262639214,0.012934681870794482,20,34,36,80,4
0.00030068512444143326,0.00011627956853466257,0.01931688769949097,0.012853235553098915,18,26,39,71,4
0.0005592651462250244,0.0015050076401995128,0.08056804992002621,0.14234401822550488,40,20,80,58,0
0.0006472900159180839,0.0015164884669049434,0.08625933984896736,0.13821001586310327,30,20,82,62,0
0.0006831918971794221,0.001456431686824746,0.0959992318608442,0.13764483809940967,24,18,80,59,0
0.000661206866984131,0.0012242446584043313,0.094869868569716,0.12427395153661061,28,18,81,52,0
0.0006578358438336261,0.0010613999279967957,0.09376063175361274,0.1187807215687436,24,22,75,55,0
0.0006616774806699575,0.0012235606132575377,0.09202447755436513,0.12430813075833673,26,24,75,53,0
0.0005928696280903207,0.0010624525161621828,0.08105105735339685,0.10598087349497029,28,24,82,59,0
0.0005469587305671294,0.0011352672725291695,0.07507967498994658,0.10487721168371679,24,22,76,58,0
0.0005721719831919005,0.0011760475037758936,0.07195102487170849,0.1017317680101287,24,22,74,60,0
0.0007468061587316507,0.0013151477977069053,0.08521894641394996,0.11228937313319844,20,20,73,53,0
0.0010310900296601143,0.0018740044908128826,0.10900999313324643,0.16081584816135397,22,20,65,49,0
0.001076157383252988,0.001779183725566754,0.1279088385404735,0.17382097385330195,28,26,63,54,0
0.0009661541922994729,0.0018529500487789868,0.13068055117133837,0.1873744570042048,34,20,70,57,0
0.0009241153136774135,0.0020676050873013026,0.11763485583825174,0.2016881728806179,30,22,64,57,0
0.0008735583742083472,0.0021207594373034914,0.11814891148421264,0.21054243300778944,26,18,71,54,0
0.0007893965210026551,0.002175329101913229,0.11518948739348228,0.21970459105731055,34,22,69,57,0
0.0007744615365515631,0.002196766438227063,0.11428449739680765,0.22735886464611993,34,24,68,57,0
0.0008342891319557656,0.0021612693332769086,0.12624099471991765,0.21791994627754,32,20,69,56,0
0.0007946978601683462,0.002013484578498668,0.11039706154187662,0.20421572292576423,34,22,69,57,0
0.0008119238948846223,0.0021594751365054464,0.10854133410371745,0.2101081970749733,28,20,66,59,0
0.0008737500876888799,0.0021261455958588244,0.11071687634508104,0.2225459115974515,30,20,65,62,0
0.0008288488991635752,0.0020855860159834008,0.10564979755952864,0.22660195730192836,30,26,61,61,0
0.0008616652367890043,0.0019066062735144673,0.1033972252462394,0.21626431945702745,26,28,65,66,0
0.0007799235374167729,0.0019051091810008633,0.09458435621855871,0.2079903345602046,28,26,71,59,0
0.0007055270636473895,0.0018053913402792884,0.09160265947626176,0.18818442115450584,30,28,70,59,0
0.0005809843131445057,0.0016308034827529963,0.07612382761262584,0.17132599930467501,40,30,76,61,0
0.0005400279446100703,0.0015416750694361063,0.07612518151242641,0.15916653337964026,36,28,75,56,0
0.0005875575962413155,0.0014361012859379196,0.07926895354914705,0.152024682420538,34,26,80,60,0
0.0005331386730885911,0.0013521620304102102,0.07653381174802425,0.14316256780597209,34,30,76,56,0
0.0005639238860471172,0.0011651183606929648,0.07949083770200818,0.13397743641510226,32,26,77,60,0
0.0006489421041710375,0.0011846829567709195,0.08162325743670722,0.12900364990582475,26,26,73,57,0
0.000606034069134634,0.0010520026707195789,0.0800185299446471,0.1208132931593497,28,26,77,55,0
0.0007235897123379141,0.0009727463912216004,0.0932776421816455,0.1268507559467242,26,32,70,57,0
0.0006593148820547692,0.0010504304609242645,0.09012220882122939,0.13298928310058203,32,34,67,57,0
0.0006315078326509982,0.0010219453486565873,0.09012813026008656,0.13491718995138094,28,40,70,63,0
0.0006706287915115969,0.0011852509748555445,0.09918632603538757,0.15362159066769765,32,34,71,61,0
0.0005638983581890187,0.0012864670092837536,0.08539109308236434,0.15086753506594205,34,26,70,62,0
0.0006441716212446633,0.0015853526329584792,0.0954465620345999,0.15774545079387445,34,18,71,54,0
0.000680217920742338,0.0016810827556778716,0.0943956073826244,0.1735123111575761,32,20,76,52,0
0.000653721998128789,0.001644508475535727,0.09047493711379292,0.1723582468074131,38,28,77,51,0
0.0006613526371339682,0.0015331361898034163,0.09493386999627797,0.17003754200112006,36,26,82,48,0
0.000690967844274442,0.0015012805737014126,0.09363172345223919,0.18074840938526812,32,30,81,54,0
0.0007244039516115186,0.0013523752586998732,0.09067070235431775,0.16701263964371535,28,30,76,58,0
0.0006526776535393245,0.001319368373739602,0.09462908423316314,0.16479083304235648,34,34,77,58,0
0.0006033784038860334,0.00145006440013231,0.08620445059732748,0.1733994292517233,32,28,80,59,0
0.0005128356585458104,0.001194824916669522,0.0759502536205026,0.14625997733491372,38,30,77,66,0
0.0005857138058767103,0.001125060439268928,0.08815043253378783,0.13982919601503335,18,32,77,64,0
0.0005233748633679798,0.0009523527418372227,0.08018999858966366,0.1303099631005475,22,30,82,64,0
0.000610612263899193,0.0009171961704713411,0.08655591595932166,0.12468488283881786,20,34,82,60,0
0.001078003852637313,0.0006875860650594223,0.1367119558912267,0.07269772418657076,28,20,68,67,1
0.0009876789855763522,0.0006030241371444147,0.11877156392570534,0.06621379464844333,26,26,65,65,1
0.0008797535682041594,0.000634579838634774,0.11137404933376359,0.06876978732351645,30,24,63,63,1
0.0008842331959928866,0.0006515196078731747,0.11450574271912096,0.067130471672216,28,20,61,55,1
0.0008518502617376106,0.0007098176051470038,0.11016139740719516,0.06582650891135346,26,18,67,57,1
0.0008459351587233832,0.0006911917141908431,0.10130243225291846,0.06202929532645074,24,14,58,64,1
0.0008258535690837926,0.000550508331090587,0.08993997535120953,0.04710825609132367,24,16,59,69,1
0.0005385752859921425,0.0004247382271324009,0.06599261712557353,0.034514180539676705,24,20,67,71,1
0.0004747468065295528,0.0003087932121029429,0.0529085630953343,0.02389431756384922,20,14,63,70,1
0.0018332334086272031,0.0014495972485709873,0.17161630298122757,0.11620185993353369,10,7,60,45,1
0.0031230365441883906,0.0026883294643834676,0.37290602174017756,0.25408875981155793,20,14,51,48,1
0.004218855412088566,0.003923124888712834,0.4986901879735786,0.36222623119118147,30,14,57,48,1
0.00499882795562817,0.005038863930224137,0.6073015217714202,0.4649237196627071,28,22,61,56,1
0.005060331233625994,0.004906705523327884,0.6280546674606798,0.4715926135744601,34,22,67,57,1
0.00421167466331249,0.0047256972295192205,0.5521688916231812,0.4467802503952484,34,26,69,53,1
0.004351558399036856,0.00417868054572955,0.5479138853331242,0.40947960716703075,30,26,75,54,1
0.004159867508374448,0.003535817516972503,0.5276013871704278,0.37986858735416246,40,24,66,58,1
0.004465209027737775,0.0030756023260981816,0.5134659379298584,0.3548109709211169,36,22,57,60,1
0.004051466077156578,0.002684416061538,0.48008036132474396,0.31119791064964863,24,24,63,66,1
0.00351482136545039,0.0022782550999715274,0.4398637571315291,0.2820203000483221,26,26,67,68,1
0.0034428051497292396,0.0021421522416801074,0.42707605866893317,0.25898684979654474,20,20,66,68,1
0.0039033188024992123,0.002453659560879133,0.46265004416332084,0.27115881945480264,20,24,62,58,1
0.0037399871536358486,0.0024734730679871115,0.4418997285081779,0.25794824887099965,18,22,62,50,1
0.003663478246803986,0.002764617881112062,0.42676526574655,0.2677283134258183,18,18,60,51,1
0.003536287520809992,0.0028499651658811208,0.4259521367490197,0.29697461800466146,20,18,65,58,1
0.0033550322601077747,0.0029237017386527448,0.4164410017145088,0.2911973388067846,26,22,68,59,1
0.003669919774403917,0.002806304208792685,0.44023011217377506,0.28832085826014714,26,22,65,58,1
0.003661471443556185,0.002690105526848845,0.43303283184398284,0.2808022439115485,28,24,62,59,1
0.0033390348294609555,0.0025385940837088115,0.39158850909077547,0.22884522330238624,32,20,61,59,1
0.002761054196843381,0.002155617745429502,0.3381287094181542,0.200063409277841,30,22,63,57,1
0.0026101359135154356,0.0021378858360891788,0.3186669728050715,0.22233748249007398,28,20,67,53,1
0.003224359930227518,0.002126018742879235,0.396224434921093,0.2341354122996409,28,20,64,57,1
0.004066722707750119,0.0024567381293261435,0.5021243531610556,0.2593353603416915,30,20,58,60,1
0.004371055711055433,0.0022990789095727214,0.5362118263094883,0.2654273882867172,24,22,65,61,1
0.0052576044806563645,0.002066386167011005,0.6046353000146176,0.23311967301537195,28,18,59,62,1
0.004937201108891087,0.002261166807045552,0.5630177636218252,0.25932384578760914,28,18,64,61,1
0.004347024416319107,0.0022229795755389233,0.4997847085239456,0.2514329963106479,26,20,68,60,1
0.004011415037014764,0.0020966969290016624,0.4772002529467128,0.23490477074205526,26,22,63,62,1
0.0031449394861143266,0.0023375154274691366,0.4046084127646918,0.24694565904094307,28,24,66,66,1
0.002992544923795231,0.0021520279067767153,0.3689954874086357,0.22361309197209187,26,24,62,67,1
0.0027778154031421905,0.002386278073501585,0.34316760872682944,0.23134812830579635,38,24,69,59,1
0.0026120859933774863,0.002319248985080015,0.3144196085466727,0.21634875240195675,32,22,67,59,1
0.0029335476821580712,0.002604918324133185,0.3379962941491485,0.2164695345094426,28,18,67,56,1
0.003003580095414064,0.0019738169485913897,0.34194453071695435,0.19542860458072936,30,16,62,60,1
0.0029588420305595793,0.0020073169125864824,0.3258878090894144,0.17405914257061428,28,16,57,59,1
0.0028630465550068974,0.002031952227940335,0.30816810112975906,0.18211345579992558,22,20,62,55,1
0.0020180084405660385,0.0019285588380057988,0.2469874099180485,0.16618021013838707,32,16,68,61,1
0.0022496222490357596,0.0016347344612563583,0.24734040990121872,0.15261571736540816,24,20,65,55,1
0.00225918325656232,0.0014357252761624858,0.25710135054384,0.14576178541379103,26,28,71,58,1
0.002540251237637354,0.000326882794251411,0.3875920549196502,0.0536191067425223,32,40,73,88,2
0.0022795458593857978,0.00041482824528271396,0.37388189873272015,0.06297303873049848,42,30,75,82,2
0.002610267484739891,0.00047058642173865387,0.4212634407005058,0.06737795209070442,34,32,81,84,2
0.0028314751049673924,0.0005009432119397483,0.45791295504902463,0.06784442707103727,30,34,79,74,2
0.0027416614919600537,0.0005489832842268846,0.43960448554510045,0.07218299710644187,30,30,75,74,2
0.0026163231388828616,0.0005887782576706537,0.44058511644384096,0.06803503274915665,32,30,75,75,2
0.002547789187245037,0.0005858788929706846,0.43818809463550507,0.06704044345346717,34,26,76,71,2
0.0028032317608393115,0.0005800678539420066,0.43535691851727154,0.06531432705718065,24,24,75,73,2
0.0027069613499619933,0.0005017465151629688,0.44258442649412566,0.060304898313269566,28,26,80,74,2
0.00304721106767216,0.0004283514195794846,0.48995215641618595,0.05837265468884354,32,30,78,80,2
0.003529908692349763,0.0004988663362261299,0.5422747153201791,0.0715096670206571,32,32,78,72,2
0.005297606758532965,0.0006143204945737739,0.7035678934863147,0.09400957283636614,26,30,77,79,2
0.006272289574007484,0.0007292654563633571,0.8461253725291378,0.11288239079417393,32,32,70,75,2
0.0067906201505826,0.0008891893160907191,0.8783620094018001,0.13206789920035897,26,30,69,67,2
0.006371632420389105,0.0008559685795286544,0.9088056204128019,0.12650007474730732,32,30,68,75,2
0.006422867482229738,0.0008142288681886849,0.8524454101440072,0.12130686551149923,28,28,67,76,2
0.0050559200381879825,0.0008487788700728255,0.7848380595846007,0.11297634889861419,30,32,73,77,2
0.004691510634007208,0.0006763052698853859,0.7875074675789353,0.10457327651763122,46,30,73,84,2
0.0040938402809996945,0.0006564997692021708,0.6962773931954763,0.09704797968331662,40,28,73,77,2
0.0036692045123965645,0.000522004177416917,0.6247478983412872,0.08240505186961831,40,26,77,86,2
0.003784033507115469,0.0004641066942100804,0.5872117753995162,0.07730409264926567,42,38,76,82,2
0.003998526620327101,0.0004582465516168942,0.6080228086489124,0.07403541227654868,34,40,75,83,2
0.004074599073175095,0.0004880145467354404,0.6142336779961228,0.0717695949163883,34,34,76,81,2
0.003977465942318357,0.0005138814074391824,0.5945816308788113,0.0727333062300817,32,34,74,74,2
0.0036102963231675004,0.000498703503857346,0.5361296877430042,0.07022728673647137,24,22,76,78,2
0.0027624610799910974,0.0004156546893594584,0.45806821694413236,0.06385214859911714,30,26,76,80,2
0.0027939154248686126,0.0004158959508409097,0.4501257947377449,0.06159502897349136,26,34,76,82,2
0.002777470222445406,0.0003566654889468675,0.4469942435087154,0.056299921916902515,28,30,77,90,2
0.002911652243542398,0.0004002872162264176,0.42633367562283336,0.05535910073081865,24,32,76,86,2
0.0027687983757465596,0.0003954279318919769,0.4381757020225509,0.05509977754611314,24,30,77,91,2
0.0027979225405478643,0.0003430324355970189,0.44865252507601316,0.05589894371691911,30,38,82,81,2
0.002794172836116879,0.0003696161185092479,0.4390431296115968,0.06039413319677878,32,36,78,86,2
0.002942724013579076,0.00031451644949251594,0.45818411764257755,0.05508505662707736,30,36,79,82,2
0.0024171896307383666,0.0003447520661125941,0.4166191527231462,0.053905647960318666,38,34,79,82,2
0.002216999518652128,0.00034604873689050153,0.37736816048915506,0.05002707841100329,38,36,77,80,2
0.0020713053087871545,0.0003336477750895403,0.360569903727595,0.046897347934520474,42,36,82,81,2
0.0022333820361617874,0.0003199037860652718,0.32747686974796963,0.04446069370431355,38,40,73,85,2
0.0021479108675042592,0.0003026371277474096,0.32610470151764714,0.04517438094843418,40,44,68,86,2
0.0020580414972089815,0.00031508263493881366,0.339649340986935,0.049637479827325734,42,46,66,92,2
0.0022078821721424158,0.00033394966223541396,0.35532659068489675,0.050999402130800495,40,50,66,92,2
0.0023951175227946396,0.00031758633076544587,0.3846232229234078,0.050354281932313526,36,44,69,92,2
0.0025595220268135456,0.0002850764010527172,0.39202380612407717,0.052428615326403215,34,52,74,92,2
0.0023868083090731866,0.00031338557315717586,0.3506628754190291,0.0503022806499715,34,36,70,88,2
0.00215162720113191,0.0003102124188591453,0.31134789033312515,0.04941704251573078,36,32,73,80,2
0.0021951701779897616,0.0003278536334920046,0.3091339011488107,0.051272636456361,32,38,67,79,2
0.0019554458609014973,0.000323466656210434,0.28800315998390924,0.04738239189271611,32,40,73,80,2
0.002013623037904578,0.0003308782593925025,0.30984572297600305,0.04789410152839492,30,44,75,83,2
0.002092658757607801,0.00032822674759993106,0.33254202092607765,0.049183481916499315,28,42,81,87,2
0.002243855816548731,0.00034518532129835204,0.33053811794330434,0.050029893898273656,26,32,86,81,2
0.0004918160011578919,0.0015943238038477875,0.08084374151691587,0.2094006780823058,34,38,80,71,3
0.0004996092042209581,0.0017718799036154787,0.08051127425802324,0.2167481128085152,40,32,88,74,3
0.0005109478211825826,0.0017544016587220746,0.08090235928850088,0.2230337709513502,44,30,94,72,3
0.0005524800757699445,0.0018803784022123782,0.0817439714035334,0.2442275112189847,38,28,92,72,3
0.0006451762830994795,0.001994221268482001,0.08443139382229041,0.2538578259729528,28,36,91,75,3
0.0005979508027924803,0.001904608535731466,0.08596892443152633,0.2405243672177663,36,30,79,81,3
0.000586998352149831,0.0018198644200409172,0.08708153492282704,0.2365994413549666,38,36,80,80,3
0.0005126763007588744,0.001581265246056616,0.0835143950394518,0.20864345872809092,34,32,81,83,3
0.0004951236077022624,0.0017570045475217041,0.0808875192792564,0.21153821311703125,48,30,80,73,3
0.0010268164974068337,0.0021945192534660336,0.11956701441382447,0.28756094457185943,26,32,79,68,3
0.0012355159448207398,0.002412897485449563,0.1356293267177764,0.3346541517823212,22,38,82,74,3
0.0013546916640703537,0.0027954282134691135,0.14945329397535345,0.38907416304010867,22,32,85,68,3
0.0015007055084993515,0.0028412431828296002,0.14139519975223513,0.4132411061304597,20,34,79,70,3
0.000898722959970037,0.0025354191960079947,0.11953369288336939,0.3776291269792941,28,34,84,73,3
0.000872914077203607,0.002304787199871979,0.110021354496862,0.3357841385784065,26,34,76,73,3
0.0008564693873327863,0.002053947103227873,0.10530674289753986,0.31935192651730854,26,34,75,73,3
0.0008041095389139957,0.0020775247247686295,0.09750695657654579,0.3042467216176281,22,34,79,63,3
0.0006700583571016717,0.0021952039476105674,0.0963828306249409,0.3153301563977365,28,30,78,61,3
0.000629854175878598,0.0025666365433265966,0.09738251025003998,0.3440866953360658,38,36,92,63,3
0.0006703534966424232,0.0026313326635036462,0.09984016590913479,0.32780164321439365,36,36,89,66,3
0.0006892888663704215,0.0025433770418845348,0.10899791231239851,0.3423417192145572,36,40,83,74,3
0.000754469957036655,0.0025613897057646384,0.10712504378825777,0.3160175319002314,32,38,86,71,3
0.0007628992384718962,0.002490386347170187,0.1137173733746957,0.3199104574829529,32,34,76,72,3
0.000708353074901453,0.002127973085387204,0.11468889092274567,0.306716173856164,36,34,79,72,3
0.0007571991572604987,0.002219316685904159,0.11640499456294068,0.30257958577431265,36,28,76,70,3
0.0007359926768648678,0.0022407878102680937,0.1169813606408174,0.3067589943060846,38,32,76,66,3
0.0006601200227620606,0.002263887627309343,0.10183542809664822,0.28009772574526426,40,28,81,72,3
0.0006256591596804671,0.002265297201377697,0.09744566396152778,0.29256923407094454,38,34,80,74,3
0.0006456615131025627,0.0021866029693697222,0.08802110095252272,0.27460607947129495,32,32,80,70,3
0.0005771377486021228,0.001954532591262674,0.08582601731062368,0.2657356926207346,36,32,85,76,3
0.0005863473876182306,0.001656331698425952,0.08937801449022216,0.24001141795785808,34,38,87,75,3
0.0005698038089269216,0.0015968072442595646,0.08665690542525736,0.22981470346105448,34,36,85,73,3
0.0005830436451848722,0.0018768467658371083,0.08800626769947732,0.21759772519576193,34,32,77,75,3
0.0005793510973075413,0.001786101139008335,0.08347133268011217,0.2127146188549885,40,30,67,73,3
0.0006325869210369586,0.001659051230135429,0.08961028950714302,0.20888134628878083,34,30,67,65,3
0.0006211715162242785,0.0016859238551584477,0.08644515449781975,0.18914720889346331,36,28,76,64,3
0.0006037406089682488,0.0013869089092811175,0.09100913343882519,0.1890868168518851,32,36,80,63,3
0.0006045870228744357,0.0014420853729007923,0.08932960958417036,0.1832082004845702,32,28,83,67,3
0.0006344791871541859,0.0016449573922857313,0.08811014986554583,0.1930292017034006,30,22,83,67,3
0.0006050567844275416,0.0015261014979864773,0.08279008488020578,0.18694452755808488,32,22,75,71,3
0.0005118158188994494,0.0014498221863848135,0.0737394481116183,0.17588978823583842,38,22,73,74,3
0.0004903581306209772,0.001299962664894912,0.07293744213259962,0.16836350524195143,36,26,70,75,3
0.0004751000736631226,0.0011962426332169465,0.07127531142631913,0.16802061935483983,36,34,70,76,3
0.0004961970939083429,0.0012042853937570543,0.07655261723030575,0.17757365040574707,32,36,72,77,3
0.0005312113890196314,0.0013192123251514613,0.08273444177510254,0.19194726059963,28,40,74,75,3
0.0005349763814606715,0.0014187499643256115,0.08157896255609293,0.1991883903442039,38,36,76,73,3
0.0004794858607125701,0.0014325734484742906,0.07287935265662801,0.1898382874794038,36,40,72,66,3
0.00045923810649162037,0.0012529362944647562,0.06829187039136313,0.17171522835463843,28,38,76,69,3
0.0004107108901863346,0.001337067768880803,0.0623937635586118,0.16308866091746282,34,32,77,70,3
0.0001514108872959044,0.00012743467152072013,0.01152371114325119,0.012759903419778775,18,26,50,62,4
0.0001595984411850746,0.00011963653760860357,0.012121192908916249,0.011211074836463306,15,17,51,75,4
0.0001576902122741425,0.00012879382266518233,0.011927218721727346,0.012162651487926385,14,20,55,71,4
0.00017831170709946956,0.0001366736660616109,0.012732747958504188,0.012227373575135791,9,21,60,69,4
0.00019940066162351153,0.00015710605307102502,0.014137222257665415,0.014174855435776977,16,16,55,67,4
0.00020539207351242292,0.0001627213963810034,0.01448594312038112,0.014261665398594749,20,24,50,63,4
0.000220525014842057,0.0001464773650872211,0.015050528648089033,0.013663901614577948,12,20,51,67,4
0.00021042862324567179,0.00014526461242988397,0.01385226645637875,0.014935924684994892,15,19,57,76,4
0.00019474860797105863,0.0001349856202200336,0.013189936542370497,0.0138592736050514,16,18,51,77,4
0.00019992449047154525,0.0001390894602651553,0.013650278354154801,0.014595796378040354,20,14,50,72,4
0.00021111126936474854,0.00013606470996659675,0.014426340413725603,0.013908758065488908,18,18,48,74,4
0.00020911752430935484,0.00013341387667014618,0.014466672264990373,0.014303704865172656,18,24,47,66,4
0.00019860002657627653,0.00012657005021443724,0.013730713781036174,0.013707626302721829,20,24,56,74,4
0.00019589438493409483,0.00012825402020812728,0.01375299959345079,0.013385052838745897,18,26,50,68,4
0.00018998562056425655,0.00012847174430895636,0.013080815546596547,0.013251602486185291,16,30,56,65,4
0.00018454222650352502,0.00011992767841609891,0.012973752713517687,0.011861671791213679,18,22,59,69,4
0.00017269700753905855,0.00010118369814679223,0.012541468032467612,0.012221712923444119,20,28,60,66,4
0.00015944930425973406,0.0001124795218228569,0.011934901384394958,0.012465422603013613,20,22,55,67,4
0.00042036951959669827,0.00018643887367703605,0.02357127885197979,0.015327087884133301,8,14,49,61,4
0.0005123296657874866,0.0003765982649253084,0.02930877462455814,0.025153198432651996,6,10,33,55,4
0.0005713248420695563,0.0003714585729938792,0.0321628498349195,0.023510659781279888,10,10,33,54,4
0.0003405564255938074,0.00028637618192847486,0.021232094279347954,0.019394580949937668,12,8,44,67,4
0.00038048419791168026,0.0002931357037212551,0.02294347468387817,0.019858136712471365,19,7,42,62,4
0.00032559980057998163,7.84064954300792e-05,0.019339125110451334,0.009406689028555468,18,24,41,65,4
0.00032389389954240054,7.866179614468072e-05,0.01967839666052035,0.00940291628147108,22,28,40,64,4
0.0003322100974468313,8.558900559774622e-05,0.020275032947650252,0.00906330729760231,20,24,39,63,4
0.00032766458360914704,7.964929429278109e-05,0.020265591150987996,0.00825000169948082,18,27,47,67,4
0.0003208749680517135,7.063293184847737e-05,0.020295629053883674,0.008205169776815248,18,30,47,67,4
0.0003150066091866212,6.330406300329602e-05,0.019893087908648004,0.0076870305906756795,18,31,47,71,4
0.0003109176367702567,4.787913060912429e-05,0.019451697997709995,0.007034772689017459,18,32,37,71,4
0.0003098541702604614,6.30044511590226e-05,0.019137538841053573,0.007111935514291884,20,21,41,69,4
0.0003096035883983007,8.459833038645915e-05,0.01921972015307042,0.008387627566148545,18,22,43,70,4
0.00030550784382370395,0.00010580843432463753,0.019279632628576356,0.010583752473321124,18,16,45,64,4
0.000299892223620719,0.00010526992698794033,0.01939870968256444,0.010431447779282711,18,22,43,60,4
0.0003003937744655782,0.00010072669690141948,0.01926414032143996,0.010048884888796752,20,18,54,59,4
0.0002951127110712458,8.596554294909563e-05,0.019091134738328727,0.009392902296839364,20,20,39,67,4
0.00029252881762937817,6.466704320370495e-05,0.01889428607063685,0.007963463549277402,20,32,37,66,4
0.0002935352824433642,7.926662079728476e-05,0.019138097980609805,0.009015156138408604,18,26,41,68,4
0.0002897284460692284,8.14478987974543e-05,0.018857632782240157,0.009995684546154354,18,26,43,70,4
0.0002871349354137151,7.812723092320339e-05,0.018788678403431628,0.00972694914625512,18,28,39,66,4
0.0002843837550555329,7.821274825745458e-05,0.018973313637731026,0.010097333819296776,20,28,51,75,4
0.0002846106968916841,7.651410363774538e-05,0.01877894432951936,0.009358816836519354,18,34,43,72,4
0.0002794805735331895,6.545832874629376e-05,0.018889457360500548,0.008632543140421054,20,32,38,82,4
0.00027711707907516656,6.912169749727912e-05,0.018845285901122836,0.008489060781807813,18,28,43,80,4
0.0002720515784267476,7.005494625410928e-05,0.01854528422062448,0.00922791558710995,22,28,44,76,4
0.00027135670583756607,7.074415006796612e-05,0.018748253736938957,0.009623855893712785,16,30,48,73,4
0.00027330793888867474,7.76493394344873e-05,0.01903112621601329,0.01000840890406841,21,24,42,75,4
0.00027699144117561175,6.981938262072605e-05,0.018959151626466057,0.009762886096508269,16,28,42,74,4
0.00027346502107166386,7.110632119892962e-05,0.019355674945573303,0.010011664929177091,21,30,46,82,4
0.0016300862826384337,0.0027045928580622775,0.19203770915218218,0.28557652453907206,20,32,64,48,0
0.001321782712639321,0.002225525919011898,0.1717082289792846,0.245324367316546,26,30,67,49,0
0.0012537167659163592,0.002092901624770933,0.1595235664769823,0.22554632722068058,28,28,69,53,0
0.0011361976153560953,0.0023003704264298076,0.15479044696637653,0.22165001218675334,28,20,69,48,0
0.0010713532032795602,0.002275737506412798,0.14649234822911694,0.2347757323321394,26,24,70,47,0
0.0010724529724425269,0.002389560549060472,0.14510243126367614,0.24406476550643189,30,24,65,49,0
0.0009973860392064621,0.002041177051855052,0.13610455629746615,0.22081431897904133,32,24,68,53,0
0.0008924692629621498,0.0020904905118711,0.11634558369596297,0.21362474530301506,30,26,75,58,0
0.0007957999872807548,0.0018565330361647902,0.09967672884134285,0.16110882497725618,24,20,72,61,0
0.0006620828826269028,0.0017425940907462188,0.08473970882803822,0.1503282971785663,26,14,76,59,0
0.0006269994541305845,0.0016746437466386957,0.08443026856280629,0.14504975318293245,30,18,77,69,0
0.0006516087041444758,0.0015013728944627352,0.09311185449304488,0.1607712265729174,30,28,71,66,0
0.0007893312660402906,0.0016288384633907488,0.10070845058005505,0.18792779363039194,32,24,76,65,0
0.00079111150632005,0.0015348397117085765,0.10359739272605388,0.17534064799155635,32,24,72,58,0
0.0007937749135927238,0.0018320734561746855,0.10795247732654055,0.18860693561264782,28,30,77,45,0
0.000918632958860456,0.0018244037478029745,0.11502025213456937,0.1706009022993787,22,22,74,50,0
0.0007742638149578113,0.0017339191874092023,0.11453580190181734,0.1558141295059197,32,16,75,54,0
0.0007228049138661816,0.0015565683274201313,0.11346311374089614,0.16099270744043775,30,20,78,59,0
0.000670562333692545,0.0016221270931737438,0.10312469186458643,0.1616094347050719,28,20,77,56,0
0.0007061621342060378,0.0015420528750952863,0.10447830972960478,0.14504038264573457,32,20,76,62,0
0.0006282323490696051,0.001400611749355456,0.09241916164118953,0.13791837841195367,38,20,75,60,0
0.0006140431731427948,0.001401092355004777,0.09454967057682265,0.13077855394261528,32,22,71,59,0
0.0005839768610764798,0.0012394796439671825,0.09004071453517726,0.13177969169101247,34,28,71,55,0
0.0005238507849149658,0.0013955592073043007,0.07546048782195965,0.13460176286131653,36,16,75,56,0
0.0027600636715172946,0.0020472230740218368,0.32869831348777084,0.19856866516890082,24,18,55,54,1
0.0025667624748046624,0.001913838477500869,0.3289304528146555,0.19428932192390566,28,23,60,57,1
0.0025520307687166323,0.001939896546352913,0.317433669729141,0.21727069591777812,24,30,65,45,1
0.003012901840157331,0.002501525470799886,0.37224929089223285,0.23681958692630378,28,24,64,44,1
0.003190037367136994,0.0022954152438890785,0.37209818997429467,0.23253366519315655,22,28,64,43,1
0.003029390694617584,0.0023819401665734533,0.35763206213288645,0.2312528823380147,30,26,59,47,1
0.0029134406891236607,0.0024862468510836876,0.35190256975067896,0.2334384060334772,28,22,58,51,1
0.0025949077125719416,0.0027398245527611408,0.33810208701738836,0.23696023881622333,30,20,66,55,1
0.0027739536470617696,0.00246722940018927,0.3385366658671151,0.22953023513997572,30,18,66,57,1
0.0023047861766559877,0.002523586824718829,0.3126979443365534,0.2299750240530413,28,18,65,49,1
0.0025319039143331425,0.0020921597186908327,0.3240023094977092,0.20547669623804055,26,20,61,52,1
0.002225884869788556,0.0017267911347310662,0.28886763710310626,0.17170609067637585,28,26,60,57,1
0.002339090286261759,0.0018463885100721137,0.297771801053767,0.20685961544318068,28,26,63,55,1
0.0025360029200303742,0.0017698170932115632,0.31276030741915756,0.19774692234115943,22,28,63,57,1
0.0024020233721287433,0.0015380143553488164,0.2802575346644946,0.1916529076376039,24,24,65,60,1
0.002302288853569193,0.00141062017705477,0.2730018053686763,0.17444359532292378,26,24,68,55,1
0.0020796015588663047,0.0015175876383422176,0.23634299166079584,0.15754896190578394,22,28,63,56,1
0.0019669857788333356,0.0014978821171207593,0.2230394012862184,0.14386912554451206,24,16,64,58,1
0.002013115450853924,0.0015744131087468832,0.23640397798260931,0.15053524164871987,30,18,64,58,1
0.0019536210997831106,0.0015701483747705093,0.23660580657439345,0.14941733192567275,28,20,67,58,1
0.0017187887018062468,0.0011672070460218543,0.2052336788205582,0.11498502276976401,26,16,64,62,1
0.0014779601433468875,0.0009509492834789289,0.1822357536927673,0.09283046053671566,26,18,67,61,1
0.001192886871026038,0.0007773331677748427,0.14540787345780953,0.07198887426974826,28,12,70,60,1
0.0011193634025173686,0.0006325720893616374,0.13202787852498668,0.06697654407857791,28,22,67,67,1
0.004392249666358355,0.0005415940192261111,0.608111757518241,0.08067904428457452,28,26,63,82,2
0.0038107593062688284,0.000548024942549082,0.519199649900639,0.07318948450051467,26,28,65,81,2
0.003539048073356106,0.0005865695677607404,0.518308221684658,0.06796696649724022,28,24,71,71,2
0.0035928203143135206,0.0005849691854598215,0.5373010712222452,0.06963100244056533,30,18,72,80,2
0.0033185377705366977,0.0005739226262872689,0.5158327784808396,0.06733921370238884,30,22,74,74,2
0.0034834683418419814,0.0005534340480062509,0.4899215135517284,0.060066105146624395,28,20,68,73,2
0.003145010301047617,0.0005154369996440644,0.43401297712823744,0.06367788737955583,32,26,70,76,2
0.002987735653761647,0.0004923002012941328,0.4303174761500369,0.06354107051291175,28,34,72,74,2
0.0027780442639034793,0.0006150087370222036,0.4213671812228551,0.07176419852588037,32,28,76,66,2
0.0024710389962540776,0.0004974367363864926,0.39108311331002377,0.06531786755107571,34,26,77,77,2
0.0028161407311738567,0.0004922161615487293,0.43324636724294996,0.05803234322448698,30,22,73,74,2
0.002514380601177375,0.0005145599025592301,0.41180078834689593,0.05346038988580858,34,22,75,75,2
0.002700144699925559,0.00047192362384564557,0.3972796628853747,0.052010514211152735,34,30,76,71,2
0.002599992928231544,0.00046531459879173954,0.41303554499124717,0.05463406363442312,36,28,73,82,2
0.0023226403031995297,0.00044898098313873365,0.37369160281217906,0.058012636458037545,40,34,78,86,2
0.002390518960738855,0.0004244594794924356,0.39843851536142383,0.060454793727698485,34,30,78,91,2
0.002368111000095564,0.0003612663466329647,0.3913815808465678,0.055867445231928714,36,34,75,91,2
0.002262844179305453,0.0003787599190455114,0.3727436846244978,0.05801664972351782,34,42,77,81,2
0.0025788217617051966,0.00043191596508797406,0.4199450835096224,0.06164575677432452,34,36,76,75,2
0.002559405562014138,0.0004370755650718576,0.4131018093936098,0.06293408795611961,42,32,79,79,2
0.0029701908470751858,0.00046230702879954463,0.4676014878856737,0.0654188329717549,32,34,75,80,2
0.0034110404830651176,0.0004248763501383827,0.5078962773335656,0.0653919389335012,36,32,68,80,2
0.003012125694848592,0.00036851357930800944,0.4396991533203533,0.059655034651424174,30,36,69,86,2
0.002890136850165305,0.0003359412664676682,0.4197202502687265,0.05570738976077774,28,38,68,87,2
0.0009165220103748526,0.0031526723097670957,0.12635963757537783,0.45355439365878536,42,32,77,67,3
0.0008352343929061137,0.002542325363676332,0.1279289943177642,0.39778452747456566,40,40,80,67,3
0.000724514171538853,0.002627388392281585,0.11714882598439087,0.3752255919511107,42,32,84,72,3
0.0006495533508348047,0.0025450295635036494,0.11291947765472386,0.38410684076822244,38,36,87,65,3
0.0007044581999875047,0.002493439813338522,0.12488997360509244,0.34110157982805417,34,36,88,71,3
0.0006559935330012227,0.002432023446909218,0.12096576634586509,0.3327070257884711,40,32,88,68,3
0.0006677572531829537,0.0021389355405128864,0.11441232591421825,0.28601895813816514,34,32,84,72,3
0.0007030499756234483,0.0019646238469231267,0.10671026209526868,0.2533055589694616,34,32,88,74,3
0.0006168426706634742,0.0020122771578077563,0.09410514177713634,0.24022799142597176,40,32,87,70,3
0.0006479849623034406,0.0019735605508691685,0.09929047325407415,0.24952055446462656,38,30,85,67,3
0.0006404285280115604,0.002034874415412527,0.09472582194379639,0.2698494612107542,40,34,88,68,3
0.0006301068946893345,0.001736591334567859,0.09748234964627386,0.25237950365655154,42,30,78,70,3
0.0005730267989410159,0.0016261342670040877,0.08489015530626154,0.2322324382217319,40,36,83,81,3
0.0005339996417199539,0.0015662747514292121,0.07902814162375588,0.21300886147191578,30,34,84,77,3
0.0005169418620934603,0.0014641943811528476,0.08232799585879592,0.18867278526191367,36,36,83,82,3
0.0005034012615320264,0.001353797865324796,0.08047131324215812,0.1862529496712881,36,32,81,74,3
0.0005634626809491152,0.0015437401419621574,0.0819453359564389,0.19671998890923,36,34,77,76,3
0.0005104021429880376,0.001482040123465574,0.08020083079431481,0.18917465700917452,40,38,84,84,3
0.0005212310398676253,0.0015531068262992945,0.07755450090659546,0.18466491676632882,32,30,80,81,3
0.0005407369103062963,0.0015100744744465536,0.07825112557885726,0.19055115354667532,34,28,81,80,3
0.0005196084693853053,0.0014604664357943103,0.07758970618289689,0.18838509995962305,32,28,78,79,3
0.0005554962079513017,0.0013623956100083801,0.07808292727175228,0.1926734487015712,30,32,79,75,3
0.0005261727209178126,0.0014930355267120516,0.07833333241525327,0.2034503572710043,30,34,78,71,3
0.0005275105840214766,0.0017558659447286084,0.07897051244457978,0.2138925716383244,26,28,75,73,3
0.0002924516148622216,0.00012460586659908063,0.019326473574606474,0.014374215988538231,21,30,40,70,4
0.00029160166773222097,0.00012341714770025861,0.019471919380123055,0.013796483455207509,18,24,32,70,4
0.0002922266379165372,0.00011737822185831597,0.019688404073647737,0.012832254306192767,21,30,36,74,4
0.00028891992820006775,0.0001036980299383469,0.019954135615334066,0.011858094431261106,18,26,42,75,4
0.0002859873171718344,0.00010920387108168503,0.02030335316330227,0.011871693460314659,25,18,48,67,4
0.0002857540836986336,0.00010716041193500497,0.020472712628784164,0.012891420122066946,18,24,46,70,4
0.00028523492515139943,0.00010301927738381727,0.020373973995019393,0.012587298554681771,20,26,44,67,4
0.0002766649144788206,0.00011833298357630643,0.01943671166602974,0.013594703492753617,18,22,42,65,4
0.00027192020664323,0.00011898131433159155,0.019162351537079115,0.013855400235593953,20,26,40,67,4
0.00027003757395809626,0.0001206710791078021,0.019242596369261587,0.013818867437551412,20,26,36,66,4
0.000416700289134724,0.0002856021476260517,0.03810682240403657,0.029873999471990802,22,15,26,68,4
0.0006282727829476068,0.0002784585234733794,0.05041639607526938,0.029809783977904954,22,16,29,63,4
0.0007261531125586614,0.0005673691397777722,0.053734797500622794,0.044429800689628866,16,8,34,51,4
0.0005983702033306562,0.0005945561655468602,0.04588192619313264,0.0448778733791431,12,8,40,52,4
0.00044871440307053584,0.0004734500138126263,0.02729428522419972,0.029367064572575048,8,6,43,51,4
8.598646569873257e-05,0.00017971310074543545,0.008615807265525627,0.015084280488626004,23,22,72,61,4
8.71493231593588e-05,0.00017889492927796298,0.008338918188784525,0.013645231026174126,20,20,67,63,4
9.06279895240368e-05,0.0001801722301743009,0.008605993417593383,0.013519539980933491,18,22,67,62,4
9.293541351724451e-05,0.0001623841805778764,0.008594127489771019,0.012479728415922695,20,22,65,59,4
9.295012066320562e-05,0.000178511782665513,0.008851613088532785,0.01374684638691995,22,22,69,57,4
9.848187976305087e-05,0.0001670507980010231,0.009204733469475555,0.014431941242617203,20,22,70,54,4
0.00010734200444812267,0.00015714138738860063,0.009461031040525735,0.015113362611280781,18,24,67,53,4
0.00012273808530265202,0.0001397575764225593,0.010342331872670517,0.015306120940301749,16,20,60,59,4
0.0001457640577726556,0.00013918214902138606,0.010978272263825594,0.01405537651142618,17,22,52,55,4
