f1ch1,f1ch2,f2ch1,f2ch2,f3ch1,f3ch2,f4ch1,f4ch2,Category
0.00047800192929574244,0.0005370870556152648,0.04541685241434149,0.04063495018955172,29,21,60,43,0
0.00047120364116659763,0.0006842905078549908,0.05430851007478632,0.05203022132939496,30,18,71,49,0
0.0005337772943742452,0.0008491209687471926,0.061589564287674564,0.060676130199319785,31,16,66,52,0
0.0006312555987850277,0.0009140081581287456,0.09417851790672387,0.06966388179140683,34,18,72,52,0
0.0006895733671513066,0.0009269942325843506,0.10356278797415971,0.07462211937491658,44,16,78,54,0
0.0008414230074695292,0.0010508549469374039,0.12792650034638642,0.0941722626105349,34,20,80,57,0
0.0011385623508327893,0.001127611557484752,0.1696618622054055,0.09971475691835499,33,16,82,55,0
0.0012591638352733837,0.0013755612530309876,0.19929025318557456,0.12238041910956621,34,18,78,60,0
0.0015748720925392618,0.001759946701320923,0.24322915755474028,0.155855278466417,30,20,83,55,0
0.0016810296900044463,0.001715567439237212,0.2601967030634339,0.1580475231060963,32,22,81,54,0
0.0016667294824771778,0.0019747617012017197,0.25309960798432185,0.17746577281993894,36,24,85,57,0
0.0015584750042326066,0.0019985349622551798,0.23787021995723304,0.18868215782902376,32,24,82,47,0
0.0013019856798155646,0.0017168217991704432,0.23132182975588847,0.18024560419547064,34,23,84,52,0
0.0012003822415182603,0.0016261550578748332,0.22510288892254637,0.18254733738691642,40,26,84,55,0
0.001320654841424368,0.001559790705251231,0.22174919939647028,0.18240727256694858,40,30,80,61,0
0.0011337761638990954,0.001564728119257848,0.2014594158935279,0.17843327350901655,36,28,77,64,0
0.0012052845271300378,0.0016876511192591664,0.18986640832403848,0.18157921869607696,36,26,72,59,0
0.0012105623776096826,0.0021179511113570367,0.19763406865431124,0.20060547011472646,24,20,78,56,0
0.001120103851801198,0.0022483323188689647,0.18722295693317784,0.21335071420900129,36,24,80,52,0
0.001255431391382985,0.002241053928490655,0.21271413845747603,0.2269994623082749,26,26,86,53,0
0.0012713576825847883,0.0026522889258882563,0.2168098901382368,0.2522838615131259,33,18,81,57,0
0.0012727984141730733,0.0024427144388524027,0.22082816503302324,0.2528614560817728,38,20,79,53,0
0.0012315692530189433,0.002658828566979332,0.22581259519274158,0.26862505026135075,45,22,79,55,0
0.0013458652368362493,0.002475845536991804,0.2142451669507649,0.24546921595837565,34,24,77,54,0
0.0012401957315459362,0.00239174150982215,0.21437167985886996,0.2300325780623602,41,28,79,56,0
0.0012314442822790738,0.0019565693447354503,0.20396691442504844,0.208426927059752,32,24,84,58,0
0.001264404636654729,0.0017936235309925666,0.19812062000009814,0.21119850205392748,30,24,78,56,0
0.0011680975320775186,0.0020314709815501,0.1998436808272905,0.21819792245571873,38,20,80,59,0
0.001200869009039193,0.001943789532085608,0.2063674440519726,0.2102623972141816,30,24,81,62,0
0.001212762787202435,0.002184733179027032,0.18570268494105938,0.21500898459484458,30,26,83,59,0
0.0011607158085657166,0.002183542960999523,0.181879449790497,0.21112881637961922,25,22,78,58,0
0.0010235073041778453,0.002255796460728928,0.16631068672684748,0.21120479164856926,30,20,80,60,0
0.0009997796090488358,0.0022260154661622004,0.1628704112470916,0.19842918666561712,36,22,86,59,0
0.001055856417375298,0.0020754286465835114,0.1678641892737032,0.22405433170656067,36,18,81,69,0
0.0009723834441264963,0.0018300568372096268,0.16646642784863172,0.20359275709470157,37,22,86,67,0
0.0009941345402526515,0.0018831448466173953,0.17011070224767044,0.21771249697686682,38,22,84,64,0
0.0010019997378818576,0.0021127946399688265,0.16208078592607056,0.24296334709196005,39,28,81,55,0
0.001005712788313495,0.0019136017156389203,0.1853723489654498,0.23238823069220946,42,28,86,58,0
0.0011910635526448195,0.002065225430471276,0.1846732897386391,0.24831882092759097,34,30,83,52,0
0.001083404092285161,0.001752006828296089,0.1750155614345598,0.19306003125811466,24,28,76,52,0
0.0008973903431571176,0.0014046242237434512,0.1340350582679771,0.14537326343538667,24,24,71,52,0
0.0006508685555290407,0.0008770865954654261,0.08858905195861676,0.09190086639662047,24,18,69,63,0
0.0004959800782684283,0.0006588624489161119,0.06066029923620675,0.04704033266894851,30,16,67,57,0
0.0005603508971331501,0.0009177647376749302,0.07831760776515438,0.0595215636416344,24,10,72,56,0
0.0007091224500503962,0.001152311400649661,0.09974985839525975,0.08542450852890458,26,12,76,52,0
0.0009413218995050409,0.00152025766935096,0.14384855093886434,0.11778501958788114,28,14,75,52,0
0.0012033293717789379,0.0018140491051188354,0.18674440955442773,0.1509045195776376,34,16,74,46,0
0.0012580080930085535,0.001717615241093277,0.2083312869896433,0.16715731153635482,30,20,77,50,0
0.0003279833166741389,0.0007453849444549042,0.040254890544358615,0.05333891993133943,32,18,60,50,1
0.0004330390500850461,0.0007333183019074041,0.055355884027387975,0.05714132677600534,22,18,70,58,1
0.0006002704312430835,0.0007534619209210924,0.0821650565359864,0.05980959786632377,26,13,69,60,1
0.0007304334567911215,0.0007398092216265186,0.09730691647854348,0.06313740228942027,24,10,75,54,1
0.0008456708005312016,0.0005429430034076959,0.1159053132214084,0.05864563783203073,32,21,78,68,1
0.0009454813366047774,0.0006516223413672931,0.13064400260145723,0.07101109004778516,30,18,71,65,1
0.0010823862306516584,0.0008689561814409992,0.13883726521786996,0.09451685479680275,32,24,70,56,1
0.0012236053980381133,0.000916322126600166,0.16414283799759818,0.09682856669716379,38,26,71,56,1
0.001355664776229083,0.0010036288083925678,0.19397727288663064,0.11255001718628015,32,22,68,57,1
0.0017888710816798931,0.000958759192589836,0.2274622425648469,0.10456878520829942,36,24,66,63,1
0.0017268681306418935,0.0011853590321913184,0.23573698181188252,0.11052637481796443,32,26,74,61,1
0.001968690979746966,0.0011109103533073488,0.2773787080240439,0.1144454166198166,34,20,73,64,1
0.0019924482235931535,0.0011284974746261064,0.2689448438210122,0.11260734467500168,30,24,77,61,1
0.0019303218877653422,0.0012811487977873377,0.2807307149442327,0.124061235351805,34,18,80,56,1
0.0018975730750257116,0.0012661412174543127,0.31740101089609385,0.13286668907488766,40,26,77,62,1
0.0019678404953276736,0.0013769942724532274,0.3053045321297587,0.14187705866976094,36,30,75,61,1
0.0020479647577511086,0.0012998954719862896,0.31750693038687666,0.13460097850079739,30,28,78,61,1
0.0019238840582282341,0.0013962836604959887,0.29241234389648557,0.1472526410547527,36,22,76,60,1
0.0017562534491296577,0.0013598499684176536,0.2890407991172617,0.12159415407940483,36,22,75,64,1
0.0016837788306563225,0.001236347499985878,0.275831734877003,0.11520518067344689,38,24,76,69,1
0.0017993684215664519,0.001148720199269772,0.2918862917901705,0.11195661067182117,40,22,73,64,1
0.0018713402406776393,0.0010647096434747197,0.2883826240867855,0.1062376623746685,34,26,79,68,1
0.001876762707277026,0.0011062936729560869,0.28125639574204275,0.11067237482193248,38,24,83,64,1
0.001869954873158484,0.001123470319066438,0.2798720268775789,0.11577145130813134,34,18,80,57,1
0.0015653449842967931,0.0012961915284557745,0.23543897456586768,0.13056013957390009,30,22,81,59,1
0.0015547240859681974,0.0012185722305935183,0.2657503402388349,0.12346824325714947,36,24,79,51,1
0.0015361061496023563,0.0012908579843986712,0.24073122118392215,0.12615167984333583,34,22,78,55,1
0.0017931852677151136,0.0011733610094292384,0.2603340536476801,0.11818503893674738,34,18,80,61,1
0.001845170699721969,0.0013299496585215326,0.2676855596555408,0.12702932759948626,34,18,78,57,1
0.0017003976839803103,0.0011350513936273345,0.2396160315883232,0.11023620340735775,36,20,72,61,1
0.0017201095357664582,0.0012133015535374693,0.23938982616634538,0.12447153632827318,36,18,74,55,1
0.0015012988430305075,0.0011181906026369475,0.2210528825157575,0.12017192933697228,32,18,74,61,1
0.0014485422580165351,0.0008507816403181913,0.21343810624515863,0.10337731909268126,30,20,70,74,1
0.001534462659453812,0.0010106842367978268,0.21960043136713436,0.12464427802322049,38,24,70,59,1
0.0013838683187257456,0.0010611470159418103,0.21233531980635165,0.10923739964400861,36,18,72,63,1
0.0014314050346559124,0.0012209039812480468,0.20457084489564056,0.11495506033841348,34,18,73,61,1
0.0015740710747304853,0.001235183812954681,0.21705213796720918,0.11573271258572325,36,24,76,53,1
0.0014813468063209503,0.001191093455107711,0.21637286733650435,0.10521631656768976,32,22,84,56,1
0.0015449313103172973,0.0009927518222709903,0.22099714643247234,0.09829149960456113,36,26,83,62,1
0.0014222467191290008,0.000999452816035707,0.18894022531259383,0.0874229310679902,30,22,75,54,1
0.0012648983887258588,0.0008837365150753447,0.1479367911344984,0.07199034271207841,22,26,74,59,1
0.0008473801588420798,0.0006446526573832227,0.09374601466774987,0.055123585337156826,20,21,63,56,1
0.00044123832698280747,0.0005552197700203533,0.05648892198144208,0.04352660271818909,24,20,68,64,1
0.0005329155620922826,0.0005782232548125008,0.06916836625860485,0.043293374887615976,23,13,69,61,1
0.0005300775276129376,0.0006307904252696208,0.07191543444978499,0.04921512795741982,30,12,71,62,1
0.0007066124510152259,0.000600997464253427,0.0987276250258155,0.05409877299610455,27,19,68,62,1
0.0007920278131190514,0.0007426501664380382,0.10813123768683003,0.05860840026423762,28,22,67,51,1
0.000934482596207899,0.0007422179388046347,0.12029840567561056,0.06751842094932597,32,22,72,47,1
0.002078708193606295,0.0006440054514603204,0.2998371424117298,0.05894994793705801,42,23,86,60,2
0.002456892742819151,0.000595173629010346,0.40630742144597454,0.06473907938263468,38,28,83,62,2
0.0027366220467065438,0.0007118362283625269,0.4867811453937542,0.075712749847033,40,25,87,67,2
0.0031409294756133844,0.000706730068597756,0.5772321326934815,0.08899459624880188,36,32,88,73,2
0.0035600413962890605,0.0008464725068931956,0.6427594409133233,0.10129787686056883,48,32,96,64,2
0.0035161096742708526,0.0007115022905450015,0.6473278074072973,0.10004014964651976,40,36,93,68,2
0.003389381224611906,0.0009338703940381338,0.6422265543801483,0.10456446766247306,46,31,95,67,2
0.003400295415750523,0.0008565723374624518,0.6418502718495037,0.10295439102039484,38,32,99,67,2
0.0031708827486536828,0.0008322358681341174,0.6089199873156111,0.10010471608327506,48,24,88,70,2
0.0029041547714585623,0.0009023024549840475,0.5876113806616631,0.10346897273711438,48,22,88,67,2
0.0029987403254874033,0.0007657598918934397,0.5919573397104487,0.09568205527917285,50,30,87,61,2
0.0026956150799663657,0.0007679717428564726,0.5450064712110823,0.09006498583010912,44,22,91,68,2
0.002588649855182859,0.0006385616124537566,0.5201769760360488,0.08070828001586088,44,24,88,69,2
0.002633315134947399,0.000765696802819396,0.4706092324805009,0.08032354369015308,46,14,84,62,2
0.002304825088069876,0.0008153280540748702,0.41097864700032966,0.07878674637267004,44,19,91,61,2
0.0020113159630848194,0.0008574797165309426,0.3638518594211395,0.07991012264825796,38,20,92,53,2
0.0018396008011045157,0.000886159787104043,0.33480943124804946,0.07830454410156219,38,23,95,50,2
0.0016839255997900628,0.0008516169793322079,0.3145301431063173,0.07333747527867653,46,22,97,62,2
0.0015316928015897391,0.0008379092561125168,0.30731168233367195,0.07604030067984573,59,24,102,66,2
0.001490469670778846,0.0007410835877000574,0.2905349287355471,0.06975993084008783,48,22,100,69,2
0.0016226801843773283,0.0007959571230635616,0.32337135872863937,0.0767901553738358,46,23,89,60,2
0.0018686981773546696,0.0007230302022432079,0.3853242809547348,0.0780932159582386,42,28,94,64,2
0.0019385413329569823,0.0008573345837118846,0.4102734161972474,0.08140487956587107,52,21,100,64,2
0.00215454642476052,0.0007824560375453858,0.4466624690560122,0.08893971678622328,52,24,96,71,2
0.0021142559685306643,0.0008961603748879937,0.41664563447064684,0.09043705618658572,48,23,90,71,2
0.002099569352493548,0.0009243115992428553,0.37992847132901764,0.09596015699474338,36,18,92,72,2
0.002055022530754151,0.0009596254262094469,0.37602638593029164,0.09627978578574636,38,20,94,61,2
0.001857677977443353,0.000888277396207312,0.3469478969423675,0.08379537770664573,38,20,94,61,2
0.0020160708247700214,0.0009510280541996071,0.37040505346370034,0.0849885445020907,42,20,94,62,2
0.0019682819137490236,0.0009779176381814877,0.36758012412550967,0.08480737291920151,50,20,92,59,2
0.0019824658656802004,0.0009560331890799008,0.3802561508761093,0.08371995204447867,50,23,89,70,2
0.002059508923678355,0.0009735023276895716,0.4028313969672767,0.09306751945112438,46,20,87,69,2
0.0019752270647264295,0.0008464860367628735,0.3923315265644035,0.09069966034506374,46,31,85,70,2
0.001885659287141271,0.0007622491282649116,0.3774539042389899,0.08783873425026967,48,20,84,72,2
0.001837116941285994,0.000843806975269104,0.34656710500269045,0.08843168103292998,50,25,90,73,2
0.001583349998960406,0.0007531446088155927,0.315698154970009,0.07956778108965472,46,24,93,66,2
0.0015490310961676882,0.000794417219442126,0.28177833129512536,0.07804337724797716,46,26,93,63,2
0.0016659321224798962,0.0008763573451023898,0.3197917111146269,0.08884737089894672,42,22,95,61,2
0.002055825023962452,0.0008400392490892861,0.3851483921493763,0.10011020959013686,42,27,93,62,2
0.0020971866989147104,0.001047737938376198,0.3842040277186355,0.10520424596382899,40,22,85,59,2
0.002006232343655785,0.0009720775907177814,0.3870646335926474,0.09488339032770458,40,18,87,61,2
0.0019601750560790843,0.0007267304461828673,0.3580663865565142,0.074630858625019,32,18,91,65,2
0.0017450971280155879,0.0005751585864496684,0.33009399451759963,0.054321586754838315,42,16,89,75,2
0.0019639260284419814,0.0006091860751453296,0.39140163355113644,0.06366321753137703,44,19,93,75,2
0.002442457835488337,0.0005932578831155504,0.47310434130525836,0.07528736143088832,44,26,90,80,2
0.00262890119963621,0.0006663082138902257,0.4995293300741991,0.08184635845163817,46,33,83,79,2
0.002883313501204704,0.0006690377641073714,0.5084216669947792,0.08089237208923686,40,28,83,72,2
0.0026687606546172884,0.0006572178302826258,0.4978915920246936,0.08307161273181451,44,31,86,68,2
0.00021630455799091731,0.0008302656460814371,0.02221059963846818,0.05241089191122942,26,12,57,36,3
0.0002415625905252777,0.0008108262333843155,0.026736967182578692,0.062212002248699945,32,16,59,49,3
0.00032901303851803627,0.0009542551854134569,0.04011532805200233,0.08119326634825436,28,18,65,56,3
0.00037177456210725707,0.0009784876043574468,0.045267519558212024,0.10241723953177215,30,20,71,65,3
0.0005104456452573288,0.0010050833517822716,0.06372158955103537,0.11415264572924094,30,24,67,64,3
0.0005498516327030865,0.0013386177272580312,0.06859763954609781,0.14624166533065017,36,21,70,55,3
0.0005238007372672527,0.0013988372869194981,0.06561300573159615,0.16031118435021618,24,24,68,62,3
0.0006159932196169281,0.001772090376035388,0.06765742091516033,0.175589872653877,22,23,71,66,3
0.0004933805209844424,0.002850062714768092,0.05507811476042508,0.24233922306964067,28,24,80,62,3
0.0005001727492621746,0.002951744796407243,0.06176255205348526,0.2733612985487282,34,24,80,61,3
0.0004939088636086034,0.003290349067867464,0.06798475518120353,0.30078801329812843,36,24,81,57,3
0.0005313559468335559,0.003349798428543106,0.07585464036551133,0.33757767553522305,36,26,73,55,3
0.0005165617418243496,0.002789841405805496,0.0793637366358218,0.2974306542392215,38,24,78,67,3
0.0005532714665887599,0.00282896048547351,0.07700548558451235,0.29970604196575945,40,26,81,62,3
0.0005277907877294959,0.0025776046461633167,0.07039759692132724,0.2804044517224769,36,32,81,66,3
0.0004761565510330216,0.0027974460789299232,0.06392916222451707,0.258624304880307,30,26,78,63,3
0.00042616969190981395,0.0024920772061185494,0.059532434933127286,0.2527490747738659,26,24,84,65,3
0.00047119085424020377,0.002680378888942679,0.0631156975326905,0.2476875732069844,24,24,82,65,3
0.0004778713077509921,0.0028376050710602623,0.06714081251380435,0.26623439560077583,26,22,82,62,3
0.0005764513421373947,0.002761238024818212,0.0739751427596911,0.2774021962352372,28,18,73,57,3
0.000582517648639934,0.002539861988646814,0.07670798189381657,0.26917869960420315,28,20,70,54,3
0.0005814060675436611,0.0023356378014285557,0.0722095424121254,0.2655561600042803,24,24,70,52,3
0.000568883463880202,0.0023415492859127805,0.06897120893372383,0.2575668417337481,22,26,70,57,3
0.0004504267392146311,0.0023994915920088717,0.06211374504488616,0.2570252646341104,34,26,82,59,3
0.00046827835213070185,0.0026195535284925606,0.0610486853258836,0.28087814132802524,30,24,83,59,3
0.0004983650442615047,0.0031278152102982436,0.06563503814015788,0.2963808114615405,26,20,86,60,3
0.0005138741432781108,0.0033295902409151714,0.07177447307396007,0.3165718575902605,24,20,77,50,3
0.0005922524437419082,0.003343933985637968,0.07466134937722706,0.315804443425807,32,18,74,54,3
0.0005734927201043043,0.0033130416851037438,0.07504349580316758,0.3001688523520433,34,22,74,62,3
0.0005932185030254062,0.003162750799145813,0.07341899049637962,0.2897003130490579,30,20,75,65,3
0.0005783572398533705,0.0034558557453933853,0.07171816321176777,0.31816162767696443,24,28,72,61,3
0.0005540845562985685,0.0033156528344244953,0.07192034045600516,0.31458025885328983,26,28,77,52,3
0.0005676873678078416,0.002870494848598201,0.07228885543429896,0.3150886455001976,26,28,76,50,3
0.0005779328141107908,0.0029622875279529657,0.0712782072824696,0.30090917820786417,28,28,74,54,3
0.0006469451567540449,0.003308649208130597,0.06998449833912213,0.31592003361758025,26,22,75,50,3
0.0005957755646191049,0.003423252469921128,0.06984258393034218,0.3039052473043756,20,20,75,49,3
0.0005518246488381325,0.003348542290986323,0.0662282689747041,0.29893180577609396,24,24,72,49,3
0.0005168014799736445,0.002980211387695921,0.06235057493129026,0.2902066165402139,20,28,74,54,3
0.0004887490059038951,0.0027113029332118477,0.05926769312367291,0.25538548019203466,28,22,79,59,3
0.000511875983357032,0.002395814708950155,0.05212203133094328,0.21638404261393823,26,20,69,53,3
0.0005095105460079021,0.002268914711816638,0.045318788178526095,0.1700663833282659,26,18,55,49,3
0.0004192849662757063,0.001694655841299636,0.03749064015134815,0.13045701361803047,22,14,56,46,3
0.0003210674287410669,0.0015315089092303876,0.026074919739515513,0.09876280997169892,17,14,58,44,3
0.0003450421511610663,0.0014802630373820522,0.03362904270661873,0.11209290876820259,18,18,62,52,3
0.00042049982423374084,0.0017313030357795551,0.04400681380614012,0.14555476595214006,25,19,73,59,3
0.00046002903125961364,0.0028458944574654994,0.05613323729891011,0.22395243008674315,30,12,77,58,3
0.0005216912783245611,0.0028243569887425814,0.06218664489707147,0.24411075239007074,31,18,83,59,3
0.000585580952301526,0.0035785166336444866,0.07431032463746252,0.319175642230209,26,16,82,53,3
0.00027822600292730647,0.0004703085962831618,0.01779813685418455,0.029146963141070962,20,16,40,31,4
0.00025163181085333087,0.0004301648560875129,0.01712186205264587,0.027092648358520578,18,20,38,34,4
0.00023328715354252555,0.00040394177581518087,0.01692713504802857,0.027008484391329968,20,16,36,35,4
0.00023776812636068018,0.0004003369017999927,0.017736442192343,0.02688045170851849,18,18,36,32,4
0.0002267754515086194,0.0004076656325798527,0.017284785747926665,0.025846367004671973,20,16,40,37,4
0.00022580078956727252,0.000410920050676312,0.01714893686822548,0.026344584000817274,18,16,38,36,4
0.00022440892459636434,0.00041965960005272513,0.01668828791611567,0.028425246022087604,20,22,42,40,4
0.00021767178791408926,0.0004862328258758054,0.01709651878221652,0.03251858325119682,16,20,40,34,4
0.0002131253995522054,0.00047936494345289857,0.01672700185800121,0.03249555017511522,21,18,44,36,4
0.00020763550822653663,0.000460725821255183,0.015978583185696553,0.03307060235031174,16,22,42,38,4
0.00019447262706522917,0.00039353371061136527,0.01534668935878453,0.028827004408818538,21,20,40,32,4
0.00018821118311311357,0.00041276549864138507,0.013969480500748654,0.02593537595398331,18,18,38,26,4
0.00018608542668518843,0.0004018906927273249,0.013956836261487192,0.02629671835584894,20,18,42,36,4
0.00018906925788221665,0.00040594334639832205,0.013903744668572058,0.02488832380382871,18,16,32,25,4
0.0001853569175102198,0.00040700134438285295,0.014083969694861559,0.025485490669491077,21,18,36,27,4
0.00018304119794164257,0.00039222298802503284,0.014688007227931215,0.02487439663785224,20,18,38,28,4
0.00017869659449923895,0.00038527661116353725,0.01483372562672413,0.02362677056668145,21,18,38,30,4
0.00017839037348258796,0.0003843161541515718,0.014579209122493076,0.023640615287087257,18,18,40,22,4
0.00017916872802091209,0.0003883505231685923,0.014768366835925197,0.02423735422151037,20,20,38,23,4
0.00018100953380287564,0.0003947998217784996,0.014641555132450634,0.02387847877434535,18,18,37,26,4
0.00017964464607412572,0.0003864441183062783,0.014321704065047835,0.023848889565871785,20,18,40,26,4
0.0001781697398567484,0.0003816073606135495,0.014101867690649509,0.024493309338854075,20,16,36,26,4
0.00017664990353675938,0.00038119967490082775,0.013976399976447184,0.023937293262448492,22,18,38,26,4
0.00017594381663724824,0.00038390587399461695,0.014108633061875011,0.024061305968292382,20,18,36,26,4
0.00017655839332103113,0.00038728358086184835,0.014579364160131572,0.024153421857883654,20,18,38,26,4
0.00017769455096949244,0.0003710973988549037,0.014842134858776094,0.02339642255793878,20,16,44,29,4
0.00017750225478494142,0.0003718870851285278,0.014857791161017991,0.02358138279262098,20,20,41,32,4
0.0004188308969489981,0.000526153191495911,0.02912079371912373,0.037589594588988424,20,18,29,30,4
0.00045031599271138213,0.0006930329600700069,0.034999387758554046,0.047261559725155486,20,18,32,33,4
0.0005144333090270854,0.000727682629366014,0.04026156910519555,0.05222397354125226,20,18,44,25,4
0.00047902817235211977,0.0007653391889735588,0.03680635914400161,0.04940367232922892,22,19,53,31,4
0.0003472443409004668,0.0005641431660778884,0.031041083721502,0.03927781888885994,22,16,67,43,4
0.00026206255914355847,0.0004683225931188628,0.024313226639134516,0.029138793553455465,20,19,68,39,4
0.0002637715431696592,0.0004472278138853423,0.02133172616582277,0.0302209116121006,22,16,65,36,4
0.00024180056722136736,0.0004210588854818538,0.020630405304596516,0.029064737042945408,24,20,63,50,4
0.0002487987406799695,0.0004629051467427816,0.018824292737293354,0.03071933704101836,18,14,50,44,4
0.0002579103288409972,0.0004775235123557564,0.019264929884534838,0.029531372575964426,20,18,64,47,4
0.0002443747581834406,0.000422103859928942,0.018960105228547217,0.02903536069516837,20,18,60,52,4
0.0002445309391430837,0.0003993546401862654,0.019038285253176735,0.028720240800363766,20,20,60,43,4
0.00025138319363222596,0.000417200905422264,0.01885860712762215,0.025787241267794775,18,20,58,51,4
0.00024617886566490076,0.00038724262550296723,0.01794367171086813,0.024801675837943397,20,20,48,40,4
0.00024757903818810556,0.0003947626985677843,0.017336422757698845,0.024150649380888834,18,18,46,28,4
0.00023696163280744463,0.00039942766902769706,0.016689301656262895,0.0241671499811311,18,18,44,26,4
0.00022902457615560874,0.0004136211542306371,0.01655488822855081,0.024476053189423704,18,18,48,26,4
0.00021591362072366583,0.0004079089129961446,0.0161267436135501,0.023639229658677346,25,16,46,28,4
0.0002038642511648652,0.0004064797016908116,0.01550725559357732,0.023864937210041317,20,18,46,26,4
0.00019249995199536272,0.000414311663268634,0.01498006039092457,0.02403817012567357,23,16,50,24,4
0.00018337175290194984,0.0004034294621524547,0.014400189903630577,0.02386751503663598,18,18,48,26,4
0.0015156973859657274,0.0022533598402356457,0.25544380695151697,0.23085423501197244,36,22,84,62,0
0.0014268977634066436,0.002192888652557274,0.25049209883256845,0.24297589247615325,38,18,87,62,0
0.0016208279769972219,0.0021423449491651393,0.28087756981000506,0.24582381609257709,34,22,87,61,0
0.0014134990105906116,0.002381846547997578,0.24186201856645892,0.2743643080257898,34,24,91,53,0
0.0016693097584623683,0.002691101719908582,0.2685378348528906,0.28979303585211674,26,24,86,54,0
0.0016164023589345434,0.0025382753644850233,0.2579311178228165,0.26925584563833943,28,26,81,54,0
0.0014735124805121957,0.0024725132566646114,0.2370558396884114,0.26050202054233296,40,28,81,56,0
0.0014354623525633145,0.0022768778242809283,0.23594569681545355,0.24075176355299815,32,26,76,63,0
0.0012743179492413499,0.0021566233516620956,0.20611471758997824,0.23894821002575856,30,26,80,65,0
0.001189308507962418,0.0017348343435165572,0.16420065457117602,0.19568973518875513,30,22,73,59,0
0.0009436277927189516,0.0012936409129693097,0.11966741490011279,0.13960506648917606,18,12,69,71,0
0.0007916029963943396,0.001134702494087093,0.09081608334823593,0.09852965920812477,18,11,67,55,0
0.0005076567886427128,0.0008340116460105587,0.06883324082638179,0.049543021310907216,28,12,70,59,0
0.0006900650429994584,0.0009773967458017653,0.0980850764219119,0.06826636476378885,32,16,72,41,0
0.0009111870346722529,0.0011005860665051726,0.147286964429189,0.0852735333942406,40,18,74,47,0
0.0010532247110797805,0.0011262482580567694,0.1764443630699035,0.10491793670084427,34,22,81,48,0
0.0013504656047092865,0.0012803892386572676,0.22090265856729058,0.1329818181664901,28,26,81,52,0
0.0017166125033312976,0.0015857952259279709,0.24952510495243835,0.1517160606868141,30,18,83,54,0
0.0015467848520466974,0.0018170614309735017,0.24835222252151395,0.18232309368227473,30,22,87,64,0
0.0015326550164186025,0.0018189276092124079,0.2679054526361392,0.17963709968506736,34,20,84,59,0
0.0014537257885152447,0.0022316564803244888,0.24856869653095362,0.20290398520132016,34,14,85,56,0
0.0013275823407387386,0.0024172234533874886,0.23203377936820932,0.2210204748119858,36,16,87,48,0
0.0012693665989402178,0.0026046237927273208,0.22085917952975107,0.22614920265726457,30,16,87,51,0
0.001293748123464154,0.0027228775295078545,0.22021834410344324,0.22558482920470999,34,16,88,51,0
0.0011742243344785934,0.002589872691349366,0.20917105256990184,0.2245295357949537,36,14,84,48,0
0.0012621324922725654,0.002048655725468788,0.23139528848344382,0.20148435090062042,44,24,84,51,0
0.0011996879697404996,0.0018175844588538337,0.2200070126163829,0.19061115780651824,34,20,85,50,0
0.001150494918294947,0.002059884847130981,0.19728258383021227,0.2223224917387696,40,16,82,50,0
0.0012011968196470497,0.0019997284703872882,0.2365636406722987,0.19988378196586568,34,16,87,51,0
0.0011222072704267522,0.001982218834525564,0.22683596678781376,0.22126394797767746,46,22,86,57,0
0.001183298360854898,0.0019061842208230825,0.24007325123282347,0.20501318056519116,38,20,90,63,0
0.001374774573159826,0.0019254025410808204,0.2527233426586449,0.19179018106792858,36,25,92,64,0
0.0013097971202697312,0.0018892077145278398,0.21695175666608818,0.19049988162913134,32,22,92,70,0
0.001244008988439074,0.0018134672145385762,0.21917567860039588,0.17489785885178163,32,18,100,66,0
0.0012690458408423386,0.0019005064167018906,0.2095428854242194,0.19903907921663264,24,20,95,64,0
0.0010969616624375074,0.0017201088036002134,0.1973608133717454,0.17753396958066617,38,22,98,58,0
0.0011626572729391811,0.001996942627101034,0.21526228432000172,0.19576079912363842,42,18,90,52,0
0.0011538861192854225,0.002183420114317358,0.21220514441086966,0.21668009658194184,36,22,90,43,0
0.0011873223213428846,0.002241669725281789,0.21622718875790725,0.20343502010442396,30,18,88,44,0
0.0010433182868952596,0.0024538114022541625,0.20890464783695734,0.224077509254694,40,16,89,44,0
0.001031196560092438,0.002627863405710537,0.19364626025361104,0.22232777045694074,42,16,86,42,0
0.0009799499634099327,0.0027439251338703323,0.19691907839878015,0.22703483386107837,44,20,81,50,0
0.0010134329532665634,0.0026760981940147483,0.20008930791636953,0.22335898057698475,46,18,85,47,0
0.000962136704613822,0.0021574172031049764,0.19186819912561726,0.2102949162560926,40,20,88,54,0
0.0011079468493811694,0.0022656388424452125,0.20949700494301804,0.2052230020878789,32,22,89,56,0
0.0010303692967070974,0.0020350323659043216,0.2035838410188783,0.20041236430636972,34,20,87,52,0
0.001192852664024512,0.0022746082352191714,0.20865240782906383,0.22552221929346253,34,22,91,52,0
0.0011602111564036506,0.002605645713909644,0.21525638193001945,0.2440383520659509,42,20,92,60,0
0.0011483354845348128,0.0023905568847235304,0.1995327352434896,0.23498236562240035,40,24,92,64,0
0.0010328454197506,0.0012154714368712261,0.15736356099753668,0.10292690031589884,42,18,78,57,1
0.0009292829076569979,0.001208503473170692,0.132978527123687,0.11179008190074673,38,18,77,59,1
0.000913749096263179,0.001266679699285286,0.13766395910207085,0.11174609739256106,28,12,78,59,1
0.0009256167363615438,0.0012294822630891861,0.144211773201879,0.11822807677644157,24,18,85,56,1
0.0009589098737226856,0.0014331238426171064,0.1409303185063477,0.1293226259535119,24,18,82,50,1
0.0010919867848315841,0.0013861677428703822,0.16752596541078393,0.11047541420056349,32,22,81,48,1
0.0011178565467617303,0.0013353752855598435,0.15756327335945827,0.11005632050060374,30,20,83,49,1
0.0011299038282589666,0.0011983957846202662,0.1631183552551032,0.11072659324031704,35,18,75,45,1
0.001142323517562801,0.0009628208839342835,0.17562582292479822,0.10166680515236005,32,20,77,53,1
0.0011465070006525249,0.0009263923166683623,0.1566750563475434,0.09177853246502722,34,20,75,55,1
0.0010273906076175266,0.0008908061814736184,0.13159349536167328,0.0794970572231715,28,18,72,51,1
0.0007860401107625788,0.0006800718180065953,0.11064884002270063,0.05763353084278498,36,18,69,48,1
0.000663552439877657,0.000496608930916557,0.0728347285156026,0.04287298836406881,16,24,63,51,1
0.0007102322087497682,0.0005575930667398455,0.08636685565510355,0.05005623039055292,20,18,67,53,1
0.0008930100251027368,0.0006069574514162559,0.11864312945940815,0.057882559325240966,24,22,67,53,1
0.001034859229875898,0.00073280693334081,0.13723635728371505,0.07015142751986868,24,26,73,52,1
0.0012028822101257343,0.0008657549978440993,0.16893806014244692,0.07811508669518101,42,24,75,58,1
0.0014606029202817639,0.0009431531386724118,0.2022945410102483,0.08797437000529329,34,24,70,55,1
0.0015482423472628257,0.0011343251443102624,0.235232568913589,0.09866178720897008,36,21,74,54,1
0.0018214807944303057,0.0014851104162921754,0.28031320768284723,0.11452355958222887,32,16,73,53,1
0.001975579026787305,0.0018719754906796721,0.3153488765159474,0.1448953110515937,34,20,73,48,1
0.002054239574979058,0.002014094361954002,0.3202908607921517,0.1496528335330434,30,20,77,43,1
0.002141039131431622,0.0021734734780801835,0.336369781996853,0.1664872975426841,36,22,69,44,1
0.0022066790980747263,0.0019074868205606204,0.34083956764647516,0.1632908186311487,30,24,73,47,1
0.0022357600458128633,0.0018096344945659584,0.35730180522376565,0.1717273309226345,34,20,77,45,1
0.0023286394218209605,0.0021630664378439247,0.38101828253193376,0.19787888974642065,42,18,75,44,1
0.0023664755661763808,0.0021325607642622437,0.38871400974591547,0.1906122681591288,34,20,84,47,1
0.002142945121686135,0.0023435317267472503,0.3525633217792131,0.21443484141092306,34,16,85,55,1
0.0021045426785134495,0.0020132661795558117,0.36806474519881416,0.1803041879483288,38,20,81,61,1
0.002070679283459653,0.002057609425678462,0.34081279143651333,0.1908360520511939,30,20,78,64,1
0.0019018576231543444,0.002235376635204727,0.333477147893048,0.19437686161918924,36,18,79,60,1
0.0021888380144463953,0.0022112606703735614,0.35653827688089595,0.1916216024822883,28,14,78,59,1
0.001832103103374558,0.0023223453246763214,0.2884429646362511,0.20674749847466714,32,18,80,51,1
0.0018292428494959072,0.0018710009547651119,0.2876261625028645,0.16562415522548163,36,18,83,48,1
0.0018866700583650086,0.0017693413305093011,0.2680072938899616,0.1602964103078785,26,16,80,56,1
0.0019540006650770577,0.0015473347001862378,0.2721020301464585,0.1403401273354673,28,20,81,56,1
0.0021712244860980674,0.0013008342886341936,0.29399236588344263,0.13112491689894598,36,18,83,59,1
0.0024283236045255976,0.0013215920787414711,0.3123852785632529,0.14273580695759908,34,18,78,65,1
0.002494137039375753,0.0014356912668411583,0.31685942033399345,0.13648322355280065,32,18,78,56,1
0.0022305217595840372,0.0016769981221682307,0.27304106769444586,0.15423675519698324,32,20,69,59,1
0.0022948922105491426,0.001704788804109744,0.29144941293138793,0.1586405581346973,32,18,67,64,1
0.00200787239554209,0.0019093403321057524,0.2705186698522011,0.16697249306665946,36,16,69,58,1
0.0018806992267259657,0.0019416274878868971,0.2622053526522111,0.1628892106483393,36,14,67,51,1
0.002084770122699621,0.0014129657538607251,0.28757968023542185,0.1350198384183443,32,16,75,59,1
0.0019845544437192882,0.0015787333368253273,0.2726030138527867,0.15106966663588567,28,22,68,55,1
0.0022810899927960984,0.0014328693041299088,0.27702553692933307,0.1408626740531973,28,22,64,54,1
0.002316406576580947,0.0012644536472826734,0.2510205154247225,0.1456332923203909,28,24,62,66,1
0.0019459853305177765,0.001375205459183278,0.2225259530996346,0.15589844416640095,26,24,59,65,1
0.0018000741262388785,0.0012663541051632673,0.22106875090207204,0.1514115138077199,22,24,59,57,1
0.001807849866967701,0.0008438559490056405,0.348606637745813,0.07110474116521988,46,26,95,65,2
0.0018990016634940093,0.0008265847274086519,0.36632938748047345,0.0759887972585739,42,19,99,64,2
0.00179243336097135,0.0007426801399854067,0.35517703209625123,0.0702935602436777,42,14,99,72,2
0.002015606118249578,0.0007087215496820204,0.38415982871517734,0.07001478782913595,44,19,102,68,2
0.0018312805619319853,0.0008021097452669357,0.3581878624063114,0.07432655957711756,40,18,99,66,2
0.0017567299703103326,0.0007058419213259603,0.320814396801624,0.06385149854108427,38,29,96,68,2
0.001786612938774827,0.0006297121859327469,0.324209666334308,0.07000988884772266,38,22,96,72,2
0.0016179945183489208,0.000680877440583275,0.30895807637584466,0.06981867117840465,38,25,96,74,2
0.0016663468098926221,0.0006105260018285016,0.32432726261085487,0.07224864641012121,34,22,100,72,2
0.0017499124655724577,0.000831257220480406,0.3328804707912814,0.0832823952808369,32,24,97,67,2
0.00194782595959632,0.0009369502776335623,0.36624864627067455,0.085785999144757,36,22,95,72,2
0.002081854352291039,0.0010510507288554174,0.399191459054415,0.09256376169132545,44,20,98,67,2
0.0023500437788544683,0.0007264274827419834,0.41342905469928476,0.08258141410442184,42,28,95,72,2
0.002821432961192258,0.0007262356248570511,0.510213362073102,0.09175032116732204,34,32,98,73,2
0.0029274930828935637,0.0006828243105951916,0.5500677628852501,0.09411897597594127,44,34,97,72,2
0.0031539243917393187,0.000688134472403425,0.5823921692741028,0.0973378586091188,48,36,93,73,2
0.003236842685382016,0.0007128289357442839,0.6327636445509197,0.10075716629164908,46,37,89,76,2
0.0030291880070134037,0.0006779019641097611,0.602388466910013,0.09241472517642664,50,44,83,83,2
0.0029335821392543443,0.0007166039113318128,0.5659729819358361,0.09510201207038663,48,34,82,79,2
0.00281751407256836,0.0007240524227593811,0.5180147282451906,0.09340364782873081,42,34,83,74,2
0.002955449115657571,0.0006657740437862286,0.5339215612143496,0.0886747577064016,42,38,84,66,2
0.0030956808984680916,0.0006454000815078398,0.5380331871668986,0.0913250225050475,38,36,84,63,2
0.0029198616552136517,0.0007249905327337097,0.5131722741088911,0.09541556863933469,40,30,85,62,2
0.0028589668199875333,0.0006358497624981878,0.5156750062028553,0.08457056654103196,42,30,82,68,2
0.0028078620176882466,0.0006613935822832173,0.4909581842681452,0.08450627414425231,36,32,83,71,2
0.0025248174481359385,0.0006360416336589451,0.4413208292031205,0.07749824742730395,36,32,86,75,2
0.0026209957708467845,0.00057188872867733,0.47077267552462565,0.07353209394888362,36,37,86,72,2
0.0023730708149964207,0.0006350635006198712,0.4352342172474051,0.07453115848686363,42,34,88,74,2
0.0022365463362310155,0.0006146872804893689,0.4120706835320305,0.07440462444111137,50,37,87,77,2
0.002146381814797444,0.0005974268483413054,0.40067664826139854,0.07600013446816424,40,42,91,71,2
0.0021569893319252614,0.0005948566738945261,0.3919952274263785,0.06888843422037688,40,35,88,74,2
0.0022207648382031524,0.0005681178512681743,0.4237328700073588,0.07032617972160679,38,28,93,74,2
0.001892322739632688,0.0006409360557691996,0.370646037653857,0.07111087559012842,44,28,92,69,2
0.002037740782059129,0.0006448583088384788,0.37743512545356755,0.07390825762103481,38,30,94,68,2
0.0019028370877031823,0.0006310095021466777,0.3606564652779896,0.07309112827008094,46,26,97,73,2
0.0018275161887358884,0.0006104662818896179,0.326702784000482,0.07388575785793582,40,24,96,74,2
0.0017323696156238424,0.0006379575462871635,0.33768689085782466,0.07424552099671089,48,25,94,71,2
0.0018093112967155001,0.0005387906705056108,0.334661311515895,0.07163102797155908,42,28,91,70,2
0.0014764541598793269,0.0006341258988678747,0.29789547501501595,0.07279486994320736,44,31,97,62,2
0.0014802878870755073,0.000688460733569393,0.2849208602174943,0.0726153635175244,38,34,99,55,2
0.0013202896382742326,0.000655090496043073,0.25078613080104434,0.06580549646765647,32,28,100,63,2
0.001283252110009077,0.000594951930966864,0.2351282260618609,0.060903119655013264,36,26,97,63,2
0.0013982795429629976,0.00067193388059766,0.26945937799775616,0.06713125567363304,36,19,102,58,2
0.0014102507501510347,0.0006308422896787523,0.27915546517386813,0.06718982400544458,42,26,103,63,2
0.0015082120000606933,0.0005932712462139454,0.2901578133773796,0.06875075625604596,42,25,104,61,2
0.0014682418482752804,0.0007358392312322814,0.29751712795209834,0.07205828108852327,44,24,95,63,2
0.001439729476903,0.0007174037517529093,0.2727086237309829,0.06495151261806428,44,21,90,66,2
0.001466783860058177,0.0006111659413969608,0.25803402249614227,0.05639847892953163,44,22,90,62,2
0.0014892846708242382,0.0005922485667729467,0.2536756391848275,0.05423524894014397,46,19,84,70,2
0.0004340267730723592,0.0026450050389869428,0.06824541614397928,0.28540377188693633,34,26,84,58,3
0.0005881520700631394,0.002873098500525572,0.06524593434158887,0.274792626501788,24,22,74,65,3
0.0006290673190196595,0.0029293664033478235,0.06744060989020773,0.28773659211373404,24,24,77,59,3
0.0006544819625884091,0.0025425503216881308,0.06776640097130511,0.24318230676275074,26,24,73,60,3
0.0007302620647778209,0.002678009394158732,0.06798833142194959,0.2461503420004617,28,14,69,61,3
0.0007411721937095609,0.0027164225394284607,0.06875161478139735,0.26254882967083093,24,22,67,56,3
0.0006977184540948532,0.002490532467704385,0.06230303594720998,0.23388477919378536,28,24,71,50,3
0.0007021938657230152,0.002164689844151641,0.06065590466647618,0.21391267470169406,22,22,69,54,3
0.0006731211199535321,0.002221430496554877,0.0564336845028879,0.20705143404940404,20,22,70,52,3
0.0007150194421082833,0.0016403222772980793,0.059509799499674054,0.14941293450073886,18,20,55,61,3
0.0006736072839541788,0.0015450798453373494,0.05254145554247804,0.1309032966705632,12,16,59,57,3
0.0005203932662266214,0.0016245437624020026,0.04658543756448782,0.1274986620283885,21,12,66,56,3
0.00043565636755655494,0.001371874915104876,0.04307883350755936,0.12312542132536891,28,12,77,55,3
0.00044563941141592954,0.0017958687467022748,0.05475272433885723,0.17144530235775293,29,18,74,48,3
0.0006311090105344376,0.002073734303823198,0.06757703243126811,0.20417953247287707,26,16,71,54,3
0.0006474960515056589,0.0023618151863632818,0.07392182372641785,0.24343548331568535,35,18,68,60,3
0.0006361966429890231,0.00257716637111522,0.0772057297064217,0.2788553299432733,30,20,70,56,3
0.0007447370942019041,0.002807921056986423,0.08514963425061679,0.3067569864745646,26,22,69,57,3
0.0006669730560711719,0.0026300618477455495,0.08275032400373455,0.31743608948213226,22,26,75,58,3
0.0006285093406026752,0.0025426159492531047,0.08863102838504607,0.32231690523611983,26,36,75,59,3
0.000694893040004644,0.002469914355767591,0.0965421381252002,0.3180311407033516,28,34,85,64,3
0.0006814034458412121,0.002524218462414735,0.09624345026657333,0.2980120107888134,34,34,88,69,3
0.0006582604466792625,0.0025351519037134524,0.10055606631569064,0.30852301533962434,32,28,80,67,3
0.0006400581914071422,0.002319353016367337,0.09466599278793662,0.2820329612612626,35,28,76,69,3
0.0005980220525359912,0.0025025751814577567,0.08366861196551921,0.2950260934040972,36,28,72,65,3
0.0006046656220443342,0.002400941146015453,0.0789806604204935,0.29920082077340476,39,30,75,64,3
0.0005614664907361561,0.002324814784868104,0.08048312533428992,0.28567748927207753,34,22,74,64,3
0.0006117906404202123,0.0024105614332123656,0.0840131243550363,0.30770696666637287,35,34,77,56,3
0.000653146964085367,0.0021955597704346095,0.08761731267168896,0.2931447629606718,28,30,76,65,3
0.0007078068663799587,0.0022357286893762633,0.08917808439105802,0.29521114306703145,29,32,77,65,3
0.0006467331808726572,0.0022426077323865977,0.0865434007327055,0.28861288874583574,28,28,78,60,3
0.0006029971682415961,0.0019367538803312012,0.08461130216125991,0.266438669290554,29,34,78,69,3
0.0006427288352874137,0.0018991850042038613,0.09092451388476319,0.24750778196702541,22,28,77,65,3
0.0006988880994891993,0.001768445538592539,0.09205920717381769,0.22655669035599077,32,29,76,74,3
0.0005740742096068661,0.0017128422922517471,0.09210427419955299,0.23095474675445643,40,32,76,72,3
0.0006170487988290803,0.0019763863791750487,0.09265349669777367,0.2500887733904672,33,24,78,70,3
0.0005860553677756253,0.001950451073002083,0.08899613103307526,0.24965055469690878,38,26,80,73,3
0.0006266692695640909,0.0021659016811002283,0.09427294426335749,0.26568499612354146,35,28,76,65,3
0.0006874220398376933,0.002145751798335823,0.09492269784280345,0.25721525828281666,32,26,71,69,3
0.0006832497283839701,0.0020840499553741905,0.09961541943150962,0.244050822948569,36,32,64,63,3
0.0006854878527177437,0.0018756913790242272,0.10098434591345483,0.24387940598657806,40,26,65,63,3
0.0005662263244729102,0.001733111836381627,0.08901214517134844,0.2440926935267158,38,30,72,61,3
0.0005556507384663657,0.0017739096228989904,0.08505082739422112,0.24484065774987468,28,26,83,61,3
0.0005797897284202813,0.001995547656358917,0.08361815936837423,0.2396390051711786,27,26,83,65,3
0.0005699582201504283,0.001790939297168684,0.0790115567118062,0.23752534354058089,24,24,83,65,3
0.000551622848272252,0.0015752332128297175,0.07875776869380147,0.20274653415050883,30,24,80,61,3
0.0005870595871940538,0.0017654239606398343,0.08241721584153007,0.2107590927806395,32,24,78,64,3
0.0005212257580675715,0.0016335158234031212,0.08209609877421249,0.20608244949223645,34,28,76,68,3
0.0005094961637596277,0.0017060816307346086,0.0783404403256549,0.21611681714740624,34,26,78,70,3
0.00018263737024855995,0.00034657330797435883,0.014885724906324286,0.025601451155204808,23,16,36,30,4
0.0001844102260001503,0.00034592630766794763,0.01466621272583975,0.0248207556863397,18,20,36,28,4
0.00018425803766753746,0.0003522810105358989,0.014623753131737402,0.025662387432033727,21,16,38,26,4
0.00018937366794225219,0.00035273949117282347,0.014625635568476887,0.025138444773743374,18,20,48,22,4
0.00019221728149503893,0.00034319142401941644,0.014551645671588778,0.024585075428198964,25,18,40,22,4
0.00019083008335104242,0.00033167696489901186,0.014363364486884621,0.02326667108835097,18,20,40,26,4
0.00018924397507638494,0.00031760678312183,0.014045441023739289,0.0224144069490652,25,20,36,24,4
0.00019504678598542002,0.00031795627594057485,0.014640885045833774,0.02277042405818123,20,20,36,26,4
0.0001963061979841224,0.0003175335130494158,0.014482400877433584,0.0224146983397476,21,20,40,30,4
0.00020403269892344116,0.00032712211474061073,0.015097620190256317,0.023182062691644793,18,20,34,28,4
0.00020444589968605876,0.00031543908889343085,0.015275958767556011,0.022500406211769713,23,18,40,26,4
0.00020234754997768448,0.00031564113362293506,0.015322951216280866,0.02293686347056799,18,18,46,22,4
0.00020876783967089258,0.00031099320211335553,0.015353212129152864,0.022933632461879436,21,16,51,24,4
0.00020968984914623143,0.00031304069961752434,0.015171998735565014,0.0230355919323592,18,20,49,26,4
0.00021223154249338456,0.00032255279989822425,0.01535451006200023,0.0237496231582744,21,22,40,24,4
0.00020743765957219361,0.0003319026562492308,0.015332745369292303,0.02339901833723588,18,20,43,26,4
0.00021769028320143283,0.0003361027057547786,0.015162323137841757,0.023217018223426804,19,18,38,26,4
0.00021117591684257815,0.0003324469720983476,0.014939573772529646,0.02325984553106072,18,18,32,26,4
0.00035857389937996546,0.0005943190830812776,0.02408510753774114,0.03808103347509675,21,20,21,21,4
0.0004972189179671297,0.0008426703435916692,0.0319050263066969,0.05606813296311031,16,18,31,28,4
0.0005162365131886706,0.000950140107624174,0.03244922795723025,0.05901724760191668,20,16,40,30,4
0.0005308062262373501,0.0008204878473392846,0.04017088314680534,0.05169409636173817,16,16,46,30,4
0.0005108233337933227,0.0008199096108374741,0.04064239458341209,0.05253516507114823,14,13,57,34,4
0.0003591033857230036,0.0005421798110410892,0.037224503455031685,0.03467605951644019,26,14,62,38,4
0.00035667327527473015,0.0005135112462983871,0.03739204176960056,0.02986795759017495,28,12,58,38,4
0.0002480368864103675,0.0004950090366553563,0.02391841652725939,0.030360652160300348,22,16,60,38,4
0.0002298137897343828,0.00044632241046123697,0.022350208799466982,0.026105082024358465,24,20,50,34,4
0.00021833281843155233,0.00043444553375053584,0.018327117675892235,0.026774885321281142,18,20,43,32,4
0.0002097397636313814,0.00048098390000929624,0.015706964997050803,0.033913070051163535,23,22,36,34,4
0.00019875966480744752,0.00046731972303115063,0.014798413323682525,0.03262799957839723,18,22,34,32,4
0.00019577140282218633,0.0004594341571062979,0.0148014457699266,0.03175458803843142,21,20,38,36,4
0.00019830062398726593,0.00045652402513339817,0.015017898165399916,0.031432283992711516,18,22,38,34,4
0.00018883161600075817,0.00044372637767787354,0.014649050231302058,0.02632596188000843,21,16,46,30,4
0.0001990978128594538,0.00044695155797366967,0.01570565323685599,0.026040754561828142,20,20,42,30,4
0.00020397242768339932,0.0004410806696939897,0.015556706579850805,0.026833371647896613,20,18,44,28,4
0.0001998739003801607,0.0004359680827892699,0.015194934557865207,0.02620473971670673,22,20,44,26,4
0.00019868932311722313,0.0004393734037875464,0.015293750122944174,0.026655747137697233,20,18,46,26,4
0.00018431445335141344,0.00042598262328727286,0.014625266306346224,0.02623918694217399,22,18,44,26,4
0.00018425342165529423,0.00043092486662722523,0.01445409964705128,0.02569477244788343,20,20,38,28,4
0.00017895948387994245,0.0004295409928174325,0.01460919872036297,0.026112767864021304,20,18,36,25,4
0.0001793996912736039,0.0004356876614271301,0.014352684940122968,0.02568960510565641,20,18,40,20,4
0.00017856852033423565,0.00044148376239439653,0.014575316022912559,0.025858965790139778,20,20,42,26,4
0.00017579693542043635,0.0004304291908496479,0.014420813339926317,0.02604891218031642,22,18,40,30,4
0.00017315167146241878,0.00043748970402419723,0.014448202110055427,0.026300132876885686,22,18,42,32,4
0.00017521114557081618,0.00041811958823637736,0.014605798063775419,0.025814985986529218,22,18,48,28,4
0.00017656640843376344,0.000409586195525189,0.01428748170773974,0.02589913009579178,22,18,44,24,4
0.0001967173327618348,0.000414459584328724,0.015349428255846908,0.02548238030731698,18,18,32,22,4
0.0001958282565632452,0.00040829611767446137,0.015216205946848277,0.025607645685405873,20,18,32,22,4
0.00019288635267600686,0.00039647055098784314,0.01495780683700967,0.025611823609247145,20,18,30,24,4
0.0014594581413892248,0.0018667751455098244,0.22904409515413346,0.19429317577532224,29,21,78,50,0
0.0013359110073253128,0.00190944340669637,0.2114603556493502,0.19865264400789143,30,18,86,58,0
0.001415464896364663,0.001903705104525927,0.21377821506507666,0.20660378441685184,31,16,88,61,0
0.0013044446526612099,0.0018726676021696145,0.18674774171146588,0.21418132103503054,34,18,93,60,0
0.0012548694727287804,0.00185591502990393,0.20126987417405204,0.20302851599224445,44,16,94,61,0
0.0012436711465178979,0.001978014509007106,0.20821952992335635,0.20522048179624064,34,20,84,60,0
0.001157267336777679,0.0019510234081371802,0.1988169545391445,0.19941665670682052,33,16,78,60,0
0.0013028362634464755,0.0021191563531479996,0.21337695304434148,0.20892871262583276,34,18,77,57,0
0.0011321722788273656,0.0023296353196617238,0.18049387299521233,0.22540806795782373,30,20,79,53,0
0.0011149593651442501,0.002815183123573363,0.18776791114346011,0.2683704820153122,32,22,84,49,0
0.0010381503100642517,0.002931714154547943,0.17755465910096652,0.27825390283850143,36,24,87,50,0
0.0011981412012018718,0.002877372373335815,0.19952092908464214,0.2675938967739567,32,24,79,46,0
0.001112979858517043,0.0024938981212347827,0.21191597123196068,0.25028449389288626,34,23,80,51,0
0.0011261682068735277,0.0025386236925454796,0.21251977832406135,0.2513118553452112,40,26,76,55,0
0.001196781825083186,0.002446274474200352,0.22718790477087542,0.25738340800495346,40,30,75,52,0
0.0011265877030711298,0.0024149679581507632,0.21747085260149127,0.26270681414451774,36,28,80,51,0
0.0013253395639218552,0.002490297548202429,0.2570749976400108,0.27372592229488885,36,26,82,53,0
0.001466735527599128,0.0019279154881967245,0.26858512314190397,0.23585827801638612,24,20,84,58,0
0.001505378182729884,0.0022182203809045504,0.28324287807366516,0.26006165232258804,36,24,83,57,0
0.0019143909507653859,0.0023050601407057624,0.34682783254873245,0.26941257857537,26,26,84,56,0
0.001857315207375604,0.0025861041059018954,0.3029996690701384,0.2922979711397111,33,18,82,54,0
0.001877745692143542,0.002777332267266654,0.2974079668959238,0.3018044096806521,38,20,82,54,0
0.0017064348956281295,0.00272292505330158,0.27819633880064004,0.2799110256761667,45,22,79,57,0
0.0015192519455605167,0.0026949433491624663,0.24894619336356452,0.26579789157174327,34,24,84,56,0
0.0010766813590667448,0.0008634306663060158,0.147572847098484,0.07016395486935188,32,18,70,48,1
0.0010578439698279442,0.000887297425049642,0.1610574321616421,0.08261189794063228,22,18,73,55,1
0.0011248515024817936,0.0008598282987265753,0.16866081100598168,0.08537769459382379,26,13,81,61,1
0.0010863499054405152,0.0011028027301483315,0.16505439855534693,0.10576857831087223,24,10,79,51,1
0.001211394487401158,0.0010937676721135198,0.1744563046775734,0.10154987500312274,32,21,77,61,1
0.0013288853599952876,0.0010619828835295795,0.1764646812168351,0.10007156072133047,30,18,74,56,1
0.0015138304540438853,0.0011660989208899517,0.20382873451977332,0.10836261647879152,32,24,72,57,1
0.0016609378959566681,0.0012168112770153956,0.2231177370757281,0.10690823393108882,38,26,71,60,1
0.001380287033635081,0.0012130861864236846,0.22681930726643923,0.10855827281528133,32,22,73,63,1
0.0013173432027870008,0.001078256747592336,0.23061823135456466,0.10277969211572538,36,24,75,57,1
0.0012126328192793696,0.0010798474379221726,0.20572247870542196,0.10417900553651596,32,26,78,59,1
0.0015476555774119696,0.0009521697114280482,0.22710079400411115,0.09342775965431008,34,20,76,65,1
0.0012998542294143088,0.001221635266186744,0.22082928784142444,0.11254712339718938,30,24,73,60,1
0.0013023830196934032,0.0010577666137947042,0.22240362101435981,0.11481162560295598,34,18,79,68,1
0.001320054295235899,0.0011342747373647762,0.21962158097414422,0.11392595864391857,40,26,84,68,1
0.0010907628870506089,0.0013633606349992002,0.18079642069126325,0.12147914424019607,36,30,84,56,1
0.0011888387650674066,0.0011543365425339214,0.18624353254040674,0.1088180992040632,30,28,86,61,1
0.0010691364871540801,0.0012369276969711662,0.16588470882879433,0.10995983223971706,36,22,82,59,1
0.001203306791836846,0.0013503957968830015,0.1776897001003124,0.12021689000524018,36,22,79,56,1
0.0012904510147341173,0.0015105932287468166,0.18480518016431607,0.13412096663429957,38,24,75,57,1
0.001327181999706167,0.0017699133166489578,0.17645480457221788,0.15165127381308585,40,22,71,53,1
0.001359967661117712,0.0017657872953005657,0.1949855481934175,0.15328818791903998,34,26,74,56,1
0.0012426736402388128,0.0016418822061767717,0.17920272116371988,0.1392807432222454,38,24,71,51,1
0.0011942200099009103,0.0014723143389197154,0.168902540636561,0.12281465687506649,34,18,75,56,1
0.0026308947921845917,0.0007315910688901253,0.4943982825433555,0.08933202002543683,42,23,90,66,2
0.0028370735923458675,0.0008183769398066176,0.540867869290993,0.09779863705144473,38,28,97,61,2
0.002720659348943656,0.0008839697336123102,0.5376498346961015,0.10301866968657084,40,25,93,65,2
0.00251488724010753,0.0008126483971686076,0.4952660379111779,0.0885468570020235,36,32,92,69,2
0.00213662332147716,0.0007533856240898455,0.4412891591966735,0.08203875720450501,48,32,94,70,2
0.001981252324934889,0.0006783781335159103,0.3794472698420621,0.0718527833443069,40,36,93,81,2
0.0016936415717259319,0.0006298974669377799,0.34131116020669205,0.06802487697212034,46,31,94,78,2
0.0019313071828783357,0.0007309069847639944,0.3936489766270481,0.0782865210441065,38,32,93,72,2
0.002042402948418814,0.0006092866794455901,0.4051133420334563,0.07680924986617634,48,24,94,67,2
0.00187005857483376,0.0006105605938735313,0.38148557514750936,0.07425363946390877,48,22,87,66,2
0.0019147335259139709,0.0007277405375403001,0.3846438528837795,0.079100329797365,50,30,83,60,2
0.0019534673067514723,0.0007627637423823493,0.3611158023986796,0.08239394457366414,44,22,87,60,2
0.001990140319745414,0.0007113144271629293,0.35789355869560563,0.07903202373898371,44,24,92,57,2
0.002052841860623721,0.000748521028625418,0.39669135026736424,0.08312715218631876,46,14,89,63,2
0.002421481855752181,0.0007557462520368604,0.443235204509922,0.08471033329513751,44,19,87,65,2
0.002518347105502961,0.0008105125269205551,0.49350717179312087,0.08517253296553211,38,20,87,62,2
0.0025340174001954622,0.0008159515777550905,0.5105248438619098,0.08684565268641568,38,23,91,71,2
0.002657951304290031,0.000951549992344081,0.5207439610870479,0.08994594857476786,46,22,92,68,2
0.002472944608401754,0.0007989840843660414,0.47921613712630245,0.08616630052931568,59,24,88,67,2
0.002421385341150055,0.0007938679835794478,0.43778767618645753,0.08081447491979729,48,22,81,68,2
0.0023757492248367585,0.0008465750730330307,0.41028181320942564,0.08759083770357547,46,23,84,68,2
0.002065907708256891,0.0007472733483018989,0.37490222278323204,0.083655620768253,42,28,90,62,2
0.001980936009338122,0.0008321106417053876,0.35497616819948113,0.08671683994203488,52,21,93,61,2
0.0019766311338456203,0.000830153164673636,0.3406372710561692,0.08408317728958949,52,24,100,64,2
0.0005993204490353719,0.0038585299052134895,0.0814465518766034,0.3412142856688985,26,12,81,57,3
0.0006654583001898022,0.0036780735550326644,0.08107564501325366,0.3091093330330117,32,16,79,59,3
0.0006584836876379936,0.00358305003694514,0.07991951144964052,0.3010975454048951,28,18,72,61,3
0.0005925203556993202,0.0030452889138364776,0.07517602858536755,0.24897629067635374,30,20,77,64,3
0.0005725860063226703,0.0023658316219972043,0.07009660065237247,0.23605781569967474,30,24,87,63,3
0.0004616688077485738,0.0020666720070496793,0.06610509999594955,0.23212857071664877,36,21,87,68,3
0.0004801089272935405,0.0018516129246049981,0.07071535603190236,0.2289828255251115,24,24,87,70,3
0.0005443419638085901,0.0017557670933020856,0.07346624060544756,0.22147400371652318,22,23,88,69,3
0.0005171472768184544,0.0018310132058207704,0.07284915578212331,0.20408979080997985,28,24,86,69,3
0.0005552138249632301,0.0022811720996497404,0.07521749832013876,0.21944288235313555,34,24,80,67,3
0.0005259694652934152,0.002360717577963313,0.07621325230380273,0.2282929052052113,36,24,79,60,3
0.000556540942904166,0.0024403006225070657,0.07031710717685237,0.2246942986779731,36,26,83,61,3
0.0005631914332394194,0.0023986620307829567,0.06976063475524784,0.2521783395420986,38,24,84,64,3
0.0005544004269381821,0.0023494396447649875,0.06683246005407392,0.24692290280181736,40,26,75,64,3
0.0005545227480566525,0.002334970441175071,0.06323048481148087,0.2351277318626053,36,32,67,65,3
0.0005344883772741507,0.0023121582437721348,0.06235137171510864,0.24477017095086318,30,26,59,66,3
0.0005584845086235916,0.00229158505682727,0.061688900715962974,0.2187965184962593,26,24,62,63,3
0.0005696090318936873,0.0024726095801786445,0.06531023710102046,0.24932426566888483,24,24,66,62,3
0.0005402255382971655,0.0023910583468068573,0.0663964878090252,0.27163038066493644,26,22,70,67,3
0.0005335172861442366,0.002576275268249536,0.06725700021148076,0.28329052244362873,28,18,70,66,3
0.0005054008062614696,0.002474402160739492,0.06928535635671622,0.29595082309074056,28,20,73,63,3
0.0004801886767003008,0.0023607715045950565,0.06912015720405387,0.2682353913646946,24,24,77,63,3
0.0004748340756025189,0.0022979222120797483,0.07123234963374057,0.25535686532035434,22,26,79,67,3
0.00044397103020683593,0.002736325971841985,0.0691915855134722,0.29337952530824535,34,26,84,60,3
0.00018198473234355437,0.00040867401019531474,0.01396321969259867,0.02356356862098496,20,16,46,26,4
0.00018072268970884195,0.00039808946626799623,0.013974210625542676,0.02355855094139514,18,20,44,24,4
0.00017841426932411304,0.0003963079162965703,0.01419377971179751,0.023106926045187597,20,16,42,20,4
0.00018024138492279612,0.00038975008413074936,0.014378289930214377,0.023648499418058726,18,18,48,20,4
0.00017799185141517977,0.0003939630141601705,0.014181171407054606,0.023212475242479866,20,16,48,22,4
0.00017918744732463104,0.00039799176109845335,0.0142300252448429,0.023639852695359162,18,16,40,22,4
0.00018260482385379142,0.000394901702822784,0.014589512182108376,0.02339867966445922,20,22,40,22,4
0.00018889496580909624,0.0003825933222017546,0.015660204320118856,0.023005030639522514,16,20,50,22,4
0.00018689931736962738,0.0003839023903996256,0.015600943764787129,0.022935788001476606,21,18,48,22,4
0.00018585520875191938,0.00037743482905552644,0.015205139018447004,0.02306527418143197,16,22,50,20,4
0.0005469383388104132,0.0004622909157973497,0.031273700561422875,0.029768119347359814,21,20,37,24,4
0.0005561243748358937,0.0005561789827752719,0.03313993551568465,0.03529117888077303,18,18,37,26,4
0.0009377125835168426,0.0007812143456081643,0.05339808292821405,0.05332817170544601,20,18,39,33,4
0.0008828000686401944,0.0007296518882792212,0.0491515349699485,0.051824716210497355,18,16,49,35,4
0.0006106406840660848,0.0006779887818039057,0.03472755205382248,0.05140189561319368,21,18,48,37,4
0.0002458496741612916,0.0005145157550219036,0.018401988563023323,0.03842017148413414,20,18,48,35,4
0.00021086130946722944,0.0004517344597547854,0.01719997765233443,0.03268695302229765,21,18,46,42,4
0.000205053309701978,0.0005095881874834713,0.01722221638846377,0.036573036389560276,18,18,54,38,4
0.0001938756357171436,0.0004553172126517308,0.01710794041313696,0.036462033927665914,20,20,56,40,4
0.00019102234565631211,0.00044375102287778966,0.017129067603149153,0.03642790011619914,18,18,56,38,4
0.0001943927725581502,0.00044367149037873363,0.016314023088478333,0.03306355829285525,20,18,44,34,4
0.0001888644959599102,0.0003908285425802972,0.015344073897248843,0.030162687882938764,20,16,38,38,4
0.00019426692045097018,0.0003508224095883814,0.015250156417553323,0.025223163095745037,22,18,34,30,4
0.00018775749139464677,0.00034462840441176046,0.014854639719620803,0.02473615231616092,20,18,32,28,4
