f1ch1,f1ch2,f2ch1,f2ch2,f3ch1,f3ch2,f4ch1,f4ch2,Category
0.0010780490434754988,0.001466567933686266,0.10229367337111885,0.15759412410321896,10,24,64,59,0
0.0013227876233137385,0.001994933658823341,0.13812288253264643,0.22402792944982663,16,32,64,61,0
0.001509588555435636,0.002142751484278707,0.16148310287855816,0.24993739351112773,24,32,64,57,0
0.001162768063802,0.002273568007037473,0.15516232439272365,0.2723288108723293,24,34,71,56,0
0.0012200441030050962,0.0021567751871209235,0.15345248917024135,0.26708486244593754,26,30,67,66,0
0.0011549380956823998,0.002035106272879762,0.14699330326445154,0.26672306362113,26,34,65,70,0
0.0010146440793315837,0.0021506190743587304,0.1273303086561334,0.27366994363026054,26,30,70,75,0
0.0010370048676237695,0.002156174081502363,0.12087516150008654,0.2797439886029597,20,32,72,67,0
0.0010069598669451819,0.00238530705379699,0.1244417579968121,0.2929890458014993,26,32,74,64,0
0.0009293963996631978,0.0022459639974558095,0.11633865911602678,0.28748110232388235,30,30,84,65,0
0.0009663293460954029,0.0021690308875204328,0.12221880777985668,0.29044167557017386,26,34,76,65,0
0.0010533096786249315,0.0020296821272147558,0.13073272707148936,0.2760558495332101,20,32,76,66,0
0.0008867520368757015,0.001950892547833762,0.11663101431729644,0.27296444131888364,23,32,80,58,0
0.0008808043845281761,0.0017739161806814036,0.11857790365357085,0.26228925056850244,26,38,78,61,0
0.00090212335187703,0.0017430577153781162,0.10640099886883608,0.24024806769864918,26,34,79,58,0
0.0007590807689480354,0.0020364132622976254,0.09641126074051291,0.24404937542125327,24,28,80,61,0
0.0007758275241648339,0.001905913368024717,0.10024587114280105,0.23329738536723377,28,26,82,63,0
0.0007377950924108607,0.0018675880387062675,0.09640667686995316,0.2282543653577511,24,26,85,66,0
0.0008082615132867629,0.0018248649931593994,0.10214232913244499,0.22124551058507613,25,34,82,70,0
0.0007490157308035246,0.0018575099436580597,0.10431913254248731,0.2152806379354772,26,28,77,68,0
0.0007541680684791263,0.0017412473523605362,0.09473315211595336,0.22164469419032154,25,30,78,67,0
0.0007504918902870493,0.001829367720186043,0.09818967081275587,0.2232709576246192,22,32,76,69,0
0.0007356840035715438,0.0017437747071195758,0.09372218207504614,0.2224373918052047,23,24,82,79,0
0.0007143805980575808,0.0018757117564669498,0.09971473043926427,0.24523159556719848,26,26,81,73,0
0.0008293314876573715,0.0017432939322447227,0.10527187863531139,0.2506171119389579,25,26,79,72,0
0.0009290274737327034,0.0017333257127090513,0.11166511059477488,0.24871395005751443,24,28,75,74,0
0.0009493022403534197,0.0020692924243606164,0.11057927810420005,0.27857748345696404,33,34,75,67,0
0.0008863717584307907,0.0020251055204716316,0.10626770831045991,0.2565064086257747,28,34,66,64,0
0.0008625374229759084,0.0019506866243069845,0.10788151047082054,0.2404007245989373,25,34,71,63,0
0.0008927764405168942,0.002020516423235312,0.1059489706921696,0.24987469056194356,24,28,69,61,0
0.0008836773175850231,0.0017166029782833556,0.1038145790758926,0.21583699454310065,23,30,72,55,0
0.0008167517007252763,0.0018145113876409321,0.0998854762958954,0.20830373943460226,26,22,68,59,0
0.0008784191916411523,0.001850279393918084,0.09801237630629493,0.1982778972479155,21,16,67,64,0
0.000759175309664437,0.001764742028459331,0.08408410404407379,0.1965694478670438,30,22,77,70,0
0.0006890043042816877,0.0017094613122326328,0.08543936513554236,0.20303900802139896,27,32,82,76,0
0.0007415086521783641,0.001502604802170303,0.08403378377930208,0.20269471265573677,22,32,79,74,0
0.0006620178433422566,0.0013125522018811928,0.07673958353511393,0.19033224244540162,27,34,80,71,0
0.00066525072734551,0.0011801079308728533,0.08029787759352822,0.1788396205022059,26,34,75,70,0
0.0005895024145711305,0.0012205781706604681,0.07875469164616597,0.16859017907675256,33,30,73,67,0
0.0009153267250898448,0.0012189487066578996,0.09551177431986985,0.1791468357839721,24,36,67,71,0
0.0010063002384138992,0.0013494741719000244,0.09874988986234383,0.19779205109701614,20,34,66,68,0
0.0008052887049230952,0.0014653573498813383,0.0969591668518327,0.18779350429264005,26,30,78,65,0
0.0006727829149063919,0.0014483770297027982,0.08588589238585756,0.1884679665140887,30,38,84,65,0
0.0007026874972810379,0.0013218907450357606,0.08173567195161478,0.1776927386830863,31,32,82,72,0
0.000714534914851209,0.0013803979632554075,0.08707545227682172,0.17963432273006594,30,28,77,67,0
0.0007178433628795257,0.0016212083517600517,0.08836392949935291,0.20027311830707664,31,26,70,67,0
0.0007034323644512171,0.0016836550805728956,0.09295735216258288,0.20368876157256588,32,24,68,62,0
0.0007128220273282863,0.001974169570039199,0.0925106166886302,0.2284272176835548,33,26,62,58,0
0.002142545767383184,0.0025611508426067824,0.2687704133857613,0.2588178959108453,30,18,58,64,1
0.001900180834952197,0.0031833013705676264,0.24175818085992992,0.3081826966883782,30,22,56,64,1
0.0017230503638242898,0.0033941924730714547,0.24240653778371243,0.37510780113183534,38,22,61,58,1
0.0019394565251234753,0.0031668999375044993,0.25632131634169086,0.3592209296213757,36,22,60,57,1
0.0018279908149304706,0.003132981703511126,0.25238557137484285,0.34786170747604767,32,16,64,60,1
0.0019180079391272148,0.0028370619244157576,0.2626923376521945,0.3206982716035508,35,22,65,67,1
0.0019073502152959856,0.0022269273548768025,0.25545628172978607,0.25917268341186606,32,26,56,64,1
0.0018371243191245632,0.002317045638078279,0.2416684673829081,0.28094193657772953,34,28,62,56,1
0.0019149071607682967,0.002180924613702435,0.22644954648162052,0.2663597363065215,30,28,60,61,1
0.001858447869714737,0.0017903186832500717,0.21030517344212865,0.22919935475061523,28,30,67,58,1
0.001717504798209281,0.0018267771973146576,0.20554896569765083,0.23028496679202298,28,28,63,60,1
0.0016123892766506714,0.0018082178365446371,0.19413940789268103,0.2200058051261692,28,26,65,60,1
0.0016056644611030812,0.0020446865871396004,0.195922638472075,0.23213872070545263,22,24,63,62,1
0.0017634668011122514,0.0020454024416659052,0.20605781356000655,0.2367484453909245,28,28,63,55,1
0.0016399148365463343,0.002095851889265214,0.20282914847531147,0.22536433259859784,28,26,66,57,1
0.0017903494276735818,0.002383231799360103,0.20790589183279007,0.2372476789962952,24,24,68,64,1
0.0017765247353904517,0.0018815009382215212,0.19769543909205803,0.2137694102314033,32,24,65,71,1
0.0016886118123127889,0.0016931918674794012,0.18214851808868276,0.21070040799767314,22,26,66,78,1
0.0016520196297439569,0.0016192227347803733,0.17928629675302268,0.2051671243101753,26,28,64,73,1
0.001336671923899777,0.0015097246861353656,0.16361002116668508,0.18317741811982852,26,32,66,70,1
0.0012830187824636574,0.0015004849631137373,0.16451170247506947,0.1779533748649838,30,34,64,69,1
0.0013531924485751857,0.0014919411604830497,0.17105348232743858,0.16833152464327517,26,26,66,68,1
0.0013983278150827459,0.0016850680698602392,0.18132418337098213,0.18919556755909095,26,22,66,66,1
0.00164657530899501,0.0017519235807126005,0.19015815793728788,0.19313762355807057,34,22,68,62,1
0.0016563252293487235,0.0019292798927282146,0.196602093791688,0.20071214755662564,26,18,68,62,1
0.0015772707811972694,0.0019142708431590597,0.1858521741227406,0.21515956696550145,28,22,71,59,1
0.0013831421464299775,0.0016526825511473018,0.1623278546407066,0.2035570211075155,30,24,69,59,1
0.0014315229413797243,0.0015130868704141143,0.16168025668081706,0.19131015780123323,36,26,66,59,1
0.0013315908527849738,0.001396464180850333,0.14567832099243871,0.17224042341813822,28,26,65,55,1
0.0014906535023574744,0.001381288467499342,0.16864840990943972,0.16168927879016448,28,20,54,58,1
0.0015767905638190284,0.0013440822306913377,0.16969196450981155,0.1486966927480212,22,18,52,61,1
0.0013686541770660879,0.001407804079495914,0.1527961749141657,0.14982575613400648,24,16,48,66,1
0.0014943382313555998,0.0017400043278895212,0.15837992525991862,0.17394855371630358,26,20,45,61,1
0.0013082597742247906,0.0015399562490383404,0.13896099537318155,0.164357095399045,23,24,58,59,1
0.0013747700166921084,0.001532593861716153,0.14525330869748082,0.16732939334243235,24,24,59,69,1
0.0013616326969637985,0.0015448160508765485,0.14779010700480286,0.1721859668738798,27,24,67,62,1
0.0012854821574692931,0.0015445794813053113,0.15623287181912707,0.1760243080180732,26,20,76,67,1
0.0012809988896001945,0.001678919245354721,0.15746827380388753,0.19095984976874653,32,24,69,66,1
0.0012437673954448752,0.0018130342821251447,0.16560812925213303,0.2028285687285413,30,20,67,63,1
0.0020471101485569345,0.0025466070196867164,0.20570908139445476,0.2730176612019409,22,20,70,52,1
0.0022511534894623293,0.0026872027094766156,0.216208468170374,0.28572787084776596,22,18,63,54,1
0.002241364227380756,0.002871298055234928,0.24663322337740715,0.2899680947323829,24,16,67,58,1
0.002439111733817283,0.002958174582857615,0.27382181920010834,0.2894708355685463,28,18,63,58,1
0.002051220276294262,0.002265073703788581,0.2628156441514138,0.23844476470792347,28,28,62,69,1
0.0023020593470218244,0.002831834702220824,0.27567422764147365,0.2868336593488577,26,28,63,65,1
0.0022482844616743105,0.0026932793296012025,0.2835140902727349,0.2924294367098932,30,28,64,65,1
0.0023484876328325115,0.0029171796010524637,0.28538672967943535,0.3053727932161946,32,26,62,66,1
0.002508892533554076,0.0034040363738290997,0.2888527510120924,0.3404748607638172,34,30,60,64,1
0.0005498052268007259,0.00011264359531240636,0.02820165479215591,0.01282600548444332,18,34,21,69,2
0.0006322979992451469,0.00016471624502332615,0.04297373697546569,0.01898951035073779,23,32,32,70,2
0.0008926457139977563,0.0002157400724683313,0.08528105490621475,0.029834400426876916,18,30,48,74,2
0.0014648413725451496,0.00031791512714362884,0.13201225682433637,0.04378593892462018,17,32,51,72,2
0.0020248253528784214,0.0004118386410089204,0.1903499510679376,0.06370112960914023,16,32,58,81,2
0.002333815268009611,0.0007866857976126503,0.24777471156789302,0.09629150605873692,25,20,62,77,2
0.0024611548333677647,0.0009016188907050854,0.28330013317241365,0.10940956946169343,22,28,61,77,2
0.0024512779327242507,0.0009450382123327019,0.30767854771626457,0.1158753819599527,29,32,72,82,2
0.002413791496501198,0.0009338631324681386,0.32469987108336673,0.1168393908157435,24,32,79,83,2
0.0022150049953348593,0.0007712337725493038,0.3136305920430465,0.10383007832138091,34,38,80,87,2
0.0021317987540514925,0.0007448727672883679,0.2945420077345303,0.10535071780932183,34,36,76,90,2
0.002030126396498468,0.0007352610605094188,0.31260188796302785,0.10945171275360016,42,34,77,88,2
0.001974840518851545,0.0008404798814243518,0.30968872313595247,0.11519488462549336,40,34,76,87,2
0.002118759153604618,0.0007224912947938178,0.3278905073373165,0.11514301149103644,46,40,73,89,2
0.0020631217202337422,0.0007364755618048486,0.3240872303217566,0.110995972859406,36,40,84,86,2
0.0020727009512814146,0.0007274848469433716,0.3255932043210936,0.11566496821249639,36,44,87,89,2
0.0024591682613881206,0.000704556342819119,0.37980677704174776,0.11286105508114443,30,42,73,89,2
0.0025608121317535,0.000691246899739345,0.39781469388477225,0.11005348587525648,36,44,68,86,2
0.0028217823478575315,0.0006704230598571117,0.4192573193785518,0.10968710071616533,38,38,66,93,2
0.0028328180905100274,0.0006361780937323852,0.40933511117277616,0.10069002839169515,38,32,67,89,2
0.0024939324309296122,0.0006205394359613863,0.35853951515299987,0.09625041515502544,32,32,67,89,2
0.0020984541546843318,0.000605509348274042,0.3083892201166073,0.0886953791541347,32,36,69,86,2
0.001778065957185323,0.0005555085173182247,0.27985170926832414,0.08476033065893925,30,36,71,82,2
0.0016968248560919868,0.0005206881147075532,0.26883918598972745,0.07989054316428218,30,38,73,83,2
0.0016535152228324976,0.00046909604809705554,0.23892806054203722,0.07150947534032745,30,32,70,85,2
0.0016224773229173203,0.0004687705262370168,0.23442765949540953,0.07131025113739957,24,32,76,80,2
0.0016280775579876298,0.0005260857000288947,0.2285747544127407,0.07347901171537906,24,30,79,83,2
0.00143485940772938,0.0005136028747648241,0.20585957098387944,0.07696921832228358,32,32,84,79,2
0.0013771766288350027,0.0005407454974001025,0.21105761856855965,0.08638489369508197,32,38,82,75,2
0.0014242789906726463,0.0005169966155332727,0.21601661065936836,0.0885239396000813,34,40,80,78,2
0.0013944140811755442,0.00048179002179883477,0.21995986839858747,0.08721957020329386,38,44,75,80,2
0.0013056425242808029,0.0004396335236669744,0.21345886410655984,0.0780370082706902,34,36,76,85,2
0.0015619585197895961,0.0005383077960522118,0.21792271951783876,0.07652022658138913,28,28,81,89,2
0.0015576399405091595,0.0005311859704312735,0.2123025132232483,0.0751483995749092,22,26,81,81,2
0.001627237322284683,0.0005447473283213782,0.2089230863429534,0.07197841505543273,24,26,78,81,2
0.001679632859822545,0.0006470805704229535,0.23906027301275135,0.07832732311663032,28,22,76,77,2
0.0014621641654777762,0.0005056192168648918,0.2076683400459852,0.07189143380924085,34,26,81,83,2
0.0014264746304853988,0.0006136087310059789,0.20703031747218903,0.07875698447712676,34,24,71,82,2
0.0014115125940756,0.0005808308402424211,0.20184526981520626,0.07758507825376003,38,24,75,82,2
0.0017547064951604786,0.00064262159445727,0.2186926151378344,0.08402117904282816,28,24,69,78,2
0.002184482987508799,0.0007727041336916331,0.2572513881465977,0.0978132537932637,30,20,62,75,2
0.0024752350415137795,0.000936256506274881,0.3217574191968115,0.11679584888121411,34,26,63,72,2
0.0025689201589685347,0.0009726743309680558,0.35482583474138807,0.12723181924331653,30,28,64,68,2
0.0025317475528073125,0.0009426359356302035,0.37020892285935,0.1250187079217572,28,28,71,71,2
0.0026778892564768226,0.0008346567845276726,0.3760729522115164,0.11403630045259507,30,30,64,74,2
0.002684174600875051,0.0005549628360683472,0.37533648556336296,0.09898323956371888,34,40,69,82,2
0.0027341572442094873,0.00056047031548555,0.3630251237929619,0.09353802164315737,22,36,71,88,2
0.0024939486427424298,0.0005466310400802654,0.35386478326107795,0.09405046174043558,28,42,67,86,2
0.0007832203126076196,0.003479482376218122,0.06486228295934905,0.39714180560823864,18,30,63,64,3
0.0008158272207893894,0.003395069215155808,0.08233339574675617,0.44073156333427027,26,30,70,66,3
0.0008071093699415783,0.003297999336680039,0.08938222454956789,0.4708571046823859,22,36,71,74,3
0.0008493415009623281,0.0028391577149214013,0.09343144611368133,0.4275705532685775,24,36,65,77,3
0.000751175101451819,0.0026814261657135668,0.0956533935844933,0.43720528225217914,24,38,65,81,3
0.0007350146305916493,0.0027578149565683713,0.09575844377933618,0.44446112321471665,28,36,67,78,3
0.0006948890299961376,0.002759119080637019,0.09439234887467367,0.42914414815143603,28,36,63,67,3
0.0007131242890776558,0.002831331185939054,0.09961075969284436,0.44221019215505,26,34,73,69,3
0.0007228279940916732,0.0027858558029304576,0.09946574067386534,0.4347802527740618,26,40,79,75,3
0.0007047902329947364,0.002755853673411635,0.09090715152961472,0.4560253333537242,24,38,71,72,3
0.0006684792907553342,0.00259879025320271,0.08816865938416839,0.448155198617144,22,44,69,78,3
0.0006402986860082959,0.0024660051681333586,0.07980715071936026,0.42073897229913826,34,40,72,79,3
0.0006493473468876184,0.0027035081415440914,0.07905468689253499,0.477189739911626,24,40,72,77,3
0.000707561954377832,0.0026302534261678067,0.08520244613134982,0.45825400837096325,24,42,73,81,3
0.0006833672790788554,0.002752220373063829,0.08358558414795328,0.45934534329046567,28,46,75,82,3
0.0006962597241086582,0.0027224882475904073,0.08589975831403433,0.46577026038459923,26,40,69,84,3
0.0006193554368346088,0.0024570456286836856,0.08018515172040815,0.43084605265929676,28,46,69,86,3
0.0005745479417201882,0.002360872342967259,0.07693577625467032,0.4036069569169178,26,40,71,80,3
0.0005776369816309011,0.002457646255693912,0.08170515301272202,0.43892519960361054,28,42,66,73,3
0.000615191262494015,0.002427253674154253,0.08407668369825694,0.427425807611219,26,44,69,78,3
0.0006823413156294679,0.0022427532871810625,0.09255851372943608,0.4082834619884817,36,42,68,82,3
0.0006499375978583637,0.00224886185456622,0.09334815079231688,0.39753487569115314,38,44,70,85,3
0.0006198161152280668,0.0020587961635262562,0.08786193324145516,0.3637311653850027,36,38,74,86,3
0.0005893719406512747,0.0020355507039237332,0.08268458011694332,0.3823509930333587,34,42,77,90,3
0.0005646107016451416,0.0019662220011164968,0.07461878634418283,0.37180607529185994,32,40,79,87,3
0.0005824359265834728,0.001962921461568388,0.07247650694202959,0.3767728710522127,24,44,78,84,3
0.0005450839346082508,0.001911843980319147,0.06829257754305586,0.3653233766621934,29,50,82,88,3
0.0006135413163754825,0.002038733787783813,0.06907721463387032,0.3564986874820023,30,42,76,86,3
0.0006573329544087797,0.002114692786378811,0.07335751895831635,0.3413217557444106,31,42,63,90,3
0.0006451564087067593,0.0021307467304505904,0.06861263160064522,0.32575336542869565,24,36,65,88,3
0.0006437712735225118,0.002093152548934415,0.07147201211184877,0.3150389561892423,27,32,69,86,3
0.0006229020846155355,0.001876584640361889,0.06818076176379129,0.2854629959702426,22,28,78,87,3
0.000618021354076243,0.0017469150840998934,0.0642244099631451,0.28108285070633454,29,36,86,82,3
0.0006607298604767247,0.0018834505707839792,0.06664392976779815,0.2943903357771313,22,38,70,79,3
0.0006411272418757889,0.0020587325532468036,0.06848829914036218,0.30826516191499226,33,40,69,79,3
0.0006184905281974305,0.0020362611417386665,0.06873282354714567,0.29431007743038523,24,32,64,79,3
0.0006115194970349246,0.001977564270278372,0.06866497759217588,0.2874500013485462,29,38,67,75,3
0.0005958301560707958,0.0017320245584431337,0.06573956247051732,0.2549430390369783,26,38,73,80,3
0.0006676690656193954,0.0017931295323630639,0.06120955661275657,0.24606382101446156,19,34,64,78,3
0.0008980652582374479,0.0021149206990082525,0.08484621195648177,0.29413851474787395,26,32,58,73,3
0.001146586338663665,0.002333897641860594,0.10291010383222181,0.34566799194140485,28,38,55,73,3
0.000979724318654065,0.0025222716074517317,0.10776893416165377,0.3976413020216297,30,38,62,66,3
0.0008116981375919285,0.0026946756778053523,0.09746168821450761,0.4186116704918278,28,30,74,68,3
0.000771957576167522,0.002608807344037179,0.09408126501478596,0.4110537856602012,29,32,62,76,3
0.0007337705714887131,0.0023797040444441366,0.08665308880641288,0.38870417693136183,22,32,68,78,3
0.0007631576756945014,0.002396431210160781,0.08874580010711483,0.3868859345439485,23,34,72,71,3
0.0007326230849789331,0.0022105684245839396,0.08763563929960137,0.3551008549109941,28,34,72,75,3
0.0006682013954036053,0.002016096185784327,0.08245369951494347,0.33810548693859943,32,36,73,69,3
0.00041293368783890534,9.977894297353619e-05,0.023280462405419443,0.013969599937573882,19,28,30,74,4
0.00040384147908166697,9.723947254042371e-05,0.022841822785426763,0.012825081089597077,16,34,26,71,4
0.00040020326323385585,9.835650685716224e-05,0.02290105634152754,0.012665421754905605,21,36,24,71,4
0.0003945283900200427,9.715180806314329e-05,0.022660320266435763,0.012563434386249758,16,34,24,72,4
0.00039068768610393454,9.89275677880566e-05,0.02270138687029779,0.012453075759617752,21,36,22,73,4
0.00038805744145205907,0.00010102979398538271,0.02258222619905716,0.012598073169379342,16,28,30,70,4
0.00038326794613384555,0.00010885684358321163,0.022505006173155692,0.01271921455308401,20,26,26,72,4
0.0003801930474280331,0.00010891621448761247,0.022591103909386345,0.013391596813796973,16,30,24,64,4
0.00038024536923689836,0.00010748753225007818,0.022648734077779006,0.013689446845194072,20,28,30,65,4
0.00037906015508620155,0.000108205171149096,0.022675291255199275,0.014068333577379653,16,28,24,67,4
0.000378791034856913,0.00010562455907491591,0.022843570726360674,0.013945673746609334,20,28,26,72,4
0.00037677244786777893,0.00010297210348261454,0.02279583248426569,0.013569913312539997,16,24,24,72,4
0.00037240980969180376,0.00011187414353100198,0.022806293076440488,0.014199572749675244,20,26,20,72,4
0.0003719714234656526,0.00010878044518148979,0.023022737937741858,0.014756162119785822,20,30,20,75,4
0.00037197189396744463,0.00013344675404770636,0.023070708381173737,0.01519428562642544,20,30,20,75,4
0.0003710832881561184,0.00012308061556434808,0.023158827877097086,0.015219932105024333,18,32,24,72,4
0.00037300350834921066,0.0001076383419391091,0.023306399036155657,0.013891624471397544,18,26,28,73,4
0.00037094393392562573,0.00010670133115082918,0.023211568741943064,0.01339980803375443,20,22,28,74,4
0.0003690342102576469,0.00010867434140589934,0.02306047941716064,0.013625075150442265,18,26,22,68,4
0.00037179432876500654,0.00010842359575246348,0.023552019704522004,0.01315630402328205,20,26,24,74,4
0.0003748278234477337,0.00012063361500009825,0.023715549095903277,0.013051238208907797,18,24,20,72,4
0.00038113610617029306,0.00011952298727052291,0.023767145331832863,0.013338956343602146,21,28,24,72,4
0.0003875451007880429,0.00011277265120005298,0.023706915161579904,0.012371917506002682,18,24,24,75,4
0.0003944142007114472,0.00011344575466411886,0.024052424429032736,0.012830283703434926,21,22,24,70,4
0.00040485645861454043,0.00012373865181397552,0.02413408984420187,0.014411596130034227,18,22,26,74,4
0.0004077058846528669,0.00012984688963619577,0.024190152110274858,0.013477005026340663,21,22,28,66,4
0.00041378373291055975,0.00013960627035124762,0.02435954580192124,0.014552237538387372,18,22,32,66,4
0.0007954158189984076,0.00017474752667788327,0.053849201657502156,0.015350081833964307,16,14,23,59,4
0.001053977875760017,0.000451355184169281,0.06775067070202849,0.028327567599220935,14,11,22,58,4
0.0010769326523394453,0.0004413504337419419,0.0692698707594801,0.026819085879988585,14,14,23,67,4
0.0009129885890701169,0.00039438627881666153,0.05581582319765748,0.024640940256267632,18,6,25,69,4
0.0007108256208929798,0.00034990843466705323,0.04308424883790282,0.022835304602214994,16,4,23,75,4
0.0006026607203369719,6.966987788355756e-05,0.031227911728158024,0.008404819846039758,18,29,21,71,4
0.0006003114080320713,7.709486201419934e-05,0.030880629550945025,0.008748487175794037,16,28,21,75,4
0.0006018263291219374,7.016858689631252e-05,0.030815676838462393,0.007511223927996217,18,21,23,71,4
0.0006007665131649641,6.879728577289821e-05,0.030765674976714074,0.007464935681292692,16,24,21,78,4
0.0005994988298577591,6.571852290808688e-05,0.03060427954509335,0.007114224777412021,18,29,23,74,4
0.0005987476464559024,6.441532942672655e-05,0.030472631259887327,0.006584426459443873,18,22,28,80,4
0.000597627228574929,6.31482391672834e-05,0.030235228181221558,0.007802793871706424,16,33,22,78,4
0.0005930512686148381,6.646726926796819e-05,0.030269209264442366,0.00715228996033499,18,22,22,74,4
0.0005905684072742182,6.968186810538536e-05,0.02996113413630366,0.008432010400785912,16,25,23,72,4
0.0005907265128661262,7.146592475843391e-05,0.029902902948186632,0.0087918642505623,18,26,24,72,4
0.0005853933410764743,7.516435454934232e-05,0.02971633758943948,0.0077925980755474255,18,27,26,73,4
0.0005828685688789855,6.68364214725228e-05,0.0296364694656211,0.007754280874631821,18,30,21,68,4
0.0005782054915432638,6.127443874238187e-05,0.02968996825987184,0.007588238716945235,18,27,24,63,4
0.0005768066728916834,6.366306291198254e-05,0.02943254961908653,0.007724127463201501,18,28,22,74,4
0.0005756903237718876,6.635245175432196e-05,0.029245741959775994,0.007805283251964458,18,25,24,79,4
0.0005739354845610559,6.291974273323896e-05,0.029159365151232113,0.008299201028424106,18,32,20,72,4
0.0008256832689374097,0.001640200277858678,0.10489297580309749,0.18787773877234715,28,26,84,63,0
0.0007218712410447512,0.0014852428836198397,0.10032504244800666,0.16945024623573415,38,28,82,68,0
0.0006520731187586502,0.0013776970219126824,0.09249812607986463,0.1699367644299432,36,30,86,74,0
0.0005850000461918263,0.0014395745799392582,0.08219710224473416,0.1774275439667478,34,28,84,66,0
0.0005612163116595478,0.0014100814646690809,0.07752447538197825,0.16306904483962287,32,26,78,67,0
0.0005522571248412585,0.001298945418924449,0.07075143862108206,0.15849766878952454,32,22,78,61,0
0.0005604539228723715,0.001113109082142118,0.07316713395323235,0.13840843572441675,24,28,73,59,0
0.0005498513215626598,0.0012406982983493185,0.07483416395543013,0.13820171619689003,32,26,72,58,0
0.0005826828700453427,0.0013297052028584863,0.0741887282120252,0.13448880423474302,34,22,64,58,0
0.0010124134185771436,0.00151995788073575,0.10170566414446884,0.16635265705702673,26,28,67,62,0
0.0010449097430967663,0.0016613497887245675,0.09464868187748272,0.19596765489893783,24,30,59,63,0
0.0009665394217068788,0.0016512981537779264,0.10248423523176597,0.19982065970492832,22,32,57,64,0
0.0007614176586944266,0.0018737578207028694,0.09380248158710693,0.2251483127400741,26,30,63,57,0
0.0007748499831303128,0.0016039449222652333,0.09069248060134674,0.2091350047111984,22,32,66,63,0
0.0007590243493915846,0.001599133343745143,0.10085159570541832,0.20124797554855295,28,30,66,58,0
0.0007211712139957935,0.001750688171065398,0.09418856557763396,0.21590300162170145,26,28,76,56,0
0.0008518750413101493,0.001739297430687175,0.10899979736343401,0.22648688182583762,30,32,75,60,0
0.0008435654354334346,0.0017955832868256374,0.1067867363442394,0.24375982038416033,30,30,72,62,0
0.0009306113661099548,0.0018753486569126107,0.1073817347471317,0.2338065779868778,26,28,70,66,0
0.0008765986392493323,0.0017434925452800105,0.1041405037610749,0.2310791224934791,26,28,64,72,0
0.0008233001555934084,0.0016481725885679776,0.10138935780692085,0.2273070246769741,26,30,66,75,0
0.0008708871409378247,0.001831531136099959,0.1044187024368538,0.24524734219572378,22,34,71,74,0
0.0008639983396056816,0.0021069433298613292,0.10893898990427439,0.2711902209729527,26,32,66,74,0
0.0009058627650389125,0.0022216053412997556,0.11369483047539103,0.27897375914140676,22,30,69,71,0
0.0009364882147063586,0.002214450366144415,0.11293948587159183,0.29166684318004527,26,34,75,73,0
0.0009592914120338862,0.0020511089818945837,0.10130487550613691,0.2692506793291664,18,34,72,70,0
0.0007954795811168539,0.0020106968395521988,0.09292839278652035,0.2670848279165814,30,36,74,68,0
0.0008187057290221693,0.002074310796792964,0.09881747118353511,0.27656012336214475,22,34,70,67,0
0.0007352481594805394,0.002101721151598788,0.0964524779826363,0.26140631142942977,32,28,72,66,0
0.0007151155790909167,0.0020021077580891534,0.10325746803651446,0.2682403230808505,32,30,72,62,0
0.0007988109281514531,0.001948857907793085,0.1099195512598083,0.2552306022570775,30,26,65,60,0
0.0007456089665949595,0.0018808823015370275,0.1049538732798212,0.23433252924406983,26,26,70,65,0
0.0007850474449503067,0.0018226165964099258,0.10456383942588372,0.24021322676390988,32,28,70,66,0
0.0007463817338550171,0.0017994939759668296,0.10100342585284697,0.22752646249839284,30,28,74,69,0
0.0007247404098315095,0.00161717628731091,0.09220931019018017,0.21610529824988414,28,32,79,75,0
0.0007638710660867292,0.00160568172837043,0.08777191095574284,0.2122345883206553,26,36,77,67,0
0.0007305101987691475,0.0014086087549460163,0.08851106325655998,0.18795438837831482,30,34,73,69,0
0.0006568683412140436,0.0013854944728351453,0.08119840671852235,0.1854053413170895,29,32,73,73,0
0.0006955357961209784,0.0013748527984821324,0.08191596907492413,0.1790198404685252,28,38,70,72,0
0.0006881317941017877,0.0016290724206373447,0.08290701411007854,0.19457937529098226,31,26,66,73,0
0.0005979936962467222,0.0016142706319554135,0.0746664068887289,0.1885054696668215,30,32,65,61,0
0.0007570258468580176,0.0016021321589054865,0.08381853280616336,0.17609005013889942,25,26,61,67,0
0.000669408779982209,0.0015643382002765952,0.07786888785009614,0.17051711417654172,30,24,68,63,0
0.000591502522767597,0.001223383077636217,0.07246754323886756,0.1370477424269574,33,28,64,67,0
0.0006699869390040445,0.0012164525883380393,0.07350772211211853,0.14109032123235746,28,24,66,72,0
0.0005840406878959015,0.0010671893186928343,0.06803444593874947,0.1288564754567481,31,32,68,72,0
0.0006029679462438871,0.0010742945046455375,0.06830240508446499,0.12897667493567352,30,28,64,70,0
0.0006113156117557722,0.0011035209532885353,0.06765970474757349,0.12588590848203818,31,24,73,69,0
0.0005427457532764328,0.001005216732285853,0.061709431369380445,0.11971797885311503,24,26,71,65,0
0.0016023830227931862,0.00194823338557034,0.20113893821620096,0.19297788309746972,34,16,64,59,1
0.0013897629027952512,0.001760623762966425,0.18289638335664035,0.17082978444130834,34,20,68,62,1
0.0016173759768283588,0.001956645508944393,0.1996032522499751,0.17680281243565435,28,20,69,61,1
0.0013598099040886308,0.001827837567634907,0.19173684665367843,0.18351277917137762,30,22,71,60,1
0.0013404081024839163,0.0016270291945277649,0.19181259221666877,0.17793708093259605,32,22,68,66,1
0.0015707272677131278,0.0016842961813213464,0.20201563624150312,0.1948148147180685,28,26,67,56,1
0.001485209181780257,0.001738691995441018,0.19399458280897228,0.19607403981042926,36,24,71,67,1
0.001626943445071202,0.0016602666222910423,0.2182993309298867,0.19181463796203502,36,24,71,66,1
0.0016739291855440768,0.0017556361590315421,0.23472153679339514,0.18846935279785296,36,24,71,62,1
0.0018166766965272466,0.0019349258915756255,0.2310215822220891,0.18707662738863867,26,26,68,75,1
0.0023907571807844498,0.002271906370169242,0.2746253465103204,0.2120439007629052,24,18,61,75,1
0.00241900798363974,0.0027444061887633812,0.26782498107811875,0.2512980397794472,26,22,62,69,1
0.0026299474958076264,0.0030641130450541985,0.2800332551384434,0.2938874083651623,24,22,59,63,1
0.0025966579523305556,0.002920652344205018,0.2887261498999883,0.3097572520478568,26,22,66,59,1
0.0022479273908929944,0.0026131327815550336,0.2625147953646488,0.28485633277018396,24,24,68,51,1
0.0022164112008873148,0.0027531427784005576,0.28488673942584836,0.3238860467076474,30,24,66,50,1
0.002439504161777982,0.0026992942533060563,0.29019314014290604,0.33700141973424336,24,32,62,53,1
0.0028354124877560173,0.002923828909958903,0.3337485399125386,0.3558135413035125,30,26,53,56,1
0.0026731829700433626,0.0029772382481031423,0.3269089265078001,0.35995104053424887,30,24,60,59,1
0.0027507960744107647,0.00226591406492929,0.31513716014272947,0.28542007281408677,30,26,57,73,1
0.0024684233952402507,0.0025205906171840353,0.29443759572736905,0.2899958424940303,30,28,57,68,1
0.0023418139917893836,0.002516800799922578,0.27469444297707063,0.27178728228174126,30,20,62,68,1
0.0021267894075479928,0.0024382308440431414,0.2608933084060557,0.2835797149132706,28,26,60,68,1
0.002064126422940868,0.002845838342434626,0.256760519674295,0.31311043253039106,28,20,69,61,1
0.0020218392688714777,0.0026983542641937277,0.2616012094477215,0.2966499012650816,30,22,75,66,1
0.0022826205218602954,0.0024903793026839123,0.28166107780876865,0.29695446091897554,26,28,74,66,1
0.002485309811096828,0.0023496324373327524,0.3013255410582799,0.28767857138960723,20,24,64,65,1
0.0028058707591798264,0.0020807408576130272,0.3122242050188876,0.26598004642463996,22,26,66,62,1
0.002834409930102905,0.001951471536275896,0.3087661245565545,0.25583003964788703,22,32,63,67,1
0.002490575825481084,0.0020896088603862607,0.27497468821672905,0.24879276015721122,22,22,63,77,1
0.002302568735231054,0.0018545248233899781,0.2606441874146039,0.22311556419179052,26,24,63,69,1
0.0023272690729493227,0.0020264443499652856,0.2789433944308345,0.2328449075098248,28,22,59,70,1
0.002607985316525166,0.002217926395469159,0.31272698816952604,0.24017063213991877,20,22,59,64,1
0.002899711795907034,0.002755405665672991,0.3297338795036547,0.28887649783383545,22,24,60,59,1
0.0030636821239173463,0.0029029702911354464,0.3382160697538671,0.3041181961619847,26,24,61,54,1
0.003030047949684593,0.0026278775731959623,0.34023373389219697,0.2888912807694707,24,24,60,65,1
0.0026924584230987756,0.0023858854514639803,0.2910635424888571,0.2834995387064751,26,20,60,65,1
0.0024740776827830227,0.00210500562564076,0.27880104339782347,0.25947105190684844,28,26,64,64,1
0.0025621269397963333,0.0020870328829305606,0.26757491440062636,0.27978564540127565,24,22,65,69,1
0.002143383853232935,0.0024500655611596218,0.22618801721833207,0.2900583198157015,24,16,67,64,1
0.0021226619085838332,0.002251374933963965,0.24124457920677775,0.2961371189202339,28,24,65,73,1
0.0021020939290305974,0.0023058442119517626,0.24573006173225048,0.3008179592792438,28,24,58,71,1
0.0023314705698439576,0.002168625251503906,0.25768923871749716,0.2746489902733714,34,22,57,71,1
0.0024124434854181954,0.0022112142019587665,0.2716607121134405,0.265530572568092,28,20,50,68,1
0.00233371198527493,0.0022855566713314607,0.2552299862194198,0.2534105039148356,26,22,55,66,1
0.002309495655645074,0.002110710874556267,0.25188865049942205,0.2278236152982423,28,24,55,68,1
0.0020474219593841114,0.0020954813428418263,0.22620472911823053,0.22931876402843232,26,28,60,69,1
0.0023161701609345693,0.0024754302178605523,0.2603569181395175,0.2520990422310029,28,22,54,69,1
0.002599636379666449,0.0020261062681832982,0.279453690395499,0.2460479092982077,30,30,55,70,1
0.0017059737619987269,0.00042202576445195657,0.254513464321112,0.0831580914241808,32,62,79,95,2
0.0017082163011522076,0.0005005467783072847,0.248891800807355,0.09110228801190615,30,44,80,88,2
0.001597249454719645,0.0005406965037686365,0.2515363306156873,0.09735697822380383,36,40,82,84,2
0.001820466683479977,0.0005805810631260469,0.27566980635957394,0.10407786132269672,38,44,87,79,2
0.0019408877557281115,0.0005597273784732228,0.268625956301334,0.09535525084123954,30,40,77,76,2
0.0018174633186068853,0.0005708879520510442,0.2613382123255708,0.09358228525357895,32,38,81,77,2
0.0018518083655955264,0.0005534824894722003,0.2581424499805835,0.09303349825423725,26,26,81,82,2
0.0017247524809643755,0.0005499552047279843,0.2649863018193401,0.08665903184330856,28,34,78,82,2
0.0017315582632595838,0.0005357795652333817,0.26520510202404757,0.08431881380328993,30,32,82,86,2
0.0021123236816396954,0.00048191362611610513,0.2959701199820703,0.0794337552914826,38,34,69,92,2
0.002394329119583941,0.0005135955743129871,0.3279554958858338,0.08197281993685668,32,34,65,100,2
0.002387240995814553,0.00053342046337206,0.3117475265649008,0.0766988529744126,34,32,61,92,2
0.002209880048238227,0.0005765689406910361,0.3269946116120523,0.08968053361379903,38,34,65,88,2
0.0021280884350707496,0.0005990907784573357,0.30120010470543285,0.0910274882843034,34,40,69,90,2
0.0018644344144330704,0.0005350965776028155,0.2787931604281456,0.08810397704966667,30,42,73,80,2
0.0019429217015055743,0.0005522660926799869,0.2918461341128256,0.0993642188081178,32,44,73,89,2
0.0020199291136560513,0.0005600143003454431,0.31291363244994486,0.09106283131646041,30,38,65,88,2
0.00219884506765217,0.0004936562411450492,0.33421802298704156,0.08839258450135498,30,46,65,94,2
0.002127169151808295,0.0005086963914890962,0.3430640696267798,0.08553963133641772,32,44,67,98,2
0.0020648247017135244,0.0004975210858963963,0.3395103107174294,0.07949646309316813,32,40,68,99,2
0.0018419766324964412,0.0004671373392982291,0.30366252990505377,0.08008931876933423,36,38,65,100,2
0.0018829444337682794,0.0004906997731254385,0.2991330647777664,0.08063918129219579,36,36,64,95,2
0.0017236949459514428,0.0004784480123230586,0.2709510673216233,0.08016977230847519,36,34,70,93,2
0.001885032177663039,0.00048010116154678455,0.2665304124167195,0.07509692903822716,36,36,71,87,2
0.0017034090877205354,0.00047891772873969146,0.24603564517743112,0.07194292104487182,32,38,74,88,2
0.0015068642508047946,0.0004508625247553032,0.22488404306663004,0.07300332811518227,30,34,71,78,2
0.0014736003509677295,0.00047194663151649827,0.2271747405044768,0.07013133465564715,34,36,80,80,2
0.0014336363803665905,0.0004849162754918824,0.2258667344292709,0.07421211744099042,38,34,72,74,2
0.0015393406255627701,0.00045686511673535406,0.23269030723750217,0.0717020590773762,42,38,76,82,2
0.0015549468523535605,0.0004098081413279766,0.24097006345852845,0.06632943421956738,32,32,69,93,2
0.0017413108410639661,0.00039990075585535185,0.263612965070613,0.06654386082190861,28,38,68,89,2
0.0017246712335585188,0.00038004057565893935,0.25308885607574144,0.061996800939596565,34,34,75,96,2
0.0016843021251369478,0.00034895338007990705,0.2563194978730296,0.0618057792589368,36,42,78,93,2
0.001622515394791384,0.0003442139851065571,0.24785739654921385,0.06011568103384059,38,42,80,88,2
0.0014362535846889892,0.00035783546261107795,0.2132723978317547,0.05595647888187844,32,42,76,90,2
0.0013720702147930277,0.0003322345980393867,0.20267737643132872,0.05149565204362842,32,34,73,93,2
0.0013098584137506688,0.0003706571368941225,0.1994053166349461,0.0530601187261549,30,42,76,86,2
0.0014003998693605715,0.0003495665809923874,0.1976026599088665,0.05345378999265342,32,40,72,97,2
0.0014040157150903,0.0003218693650031274,0.20483077772963895,0.05543492714143732,36,42,69,101,2
0.0015283267947998607,0.00035083223256096477,0.2094163790564287,0.05791305998160001,38,36,71,104,2
0.0016085383656678557,0.00033093408933782887,0.21649548764160345,0.05656520440982186,30,44,65,100,2
0.0016398758486814056,0.0003469591815426696,0.22645137144266803,0.06216324322758989,32,42,67,99,2
0.0015041191108171692,0.0003656498004911264,0.22899524427659954,0.06138313654076359,32,36,69,90,2
0.0017015052841974326,0.000369306491442747,0.2513245505469742,0.06300234491738849,34,44,72,84,2
0.0015457518109798685,0.000376258661440816,0.2336373638025322,0.061971291557207556,34,42,72,85,2
0.0015423156741588694,0.00034168317674652433,0.2140619797285092,0.05678448044659118,32,36,76,89,2
0.0014222079390515219,0.0003098101078934011,0.20167878236183917,0.05405854534599477,32,42,80,92,2
0.0014639478534643794,0.00029635752780489974,0.1812959968329091,0.05363291683754534,22,42,73,95,2
0.0014782204772585865,0.0003085383560614904,0.20342477844108933,0.05468021409588643,26,52,73,99,2
0.0005463033965735132,0.0011643644009130217,0.049753168514986276,0.19505082096252824,24,40,69,74,3
0.0005529956126729312,0.001316805691338129,0.054539964713912314,0.2195881875468989,26,34,68,69,3
0.0006161771251285804,0.001473435183535413,0.05604912429175279,0.22628382160399296,28,32,74,66,3
0.0005637030349641118,0.001569564971570393,0.06078171620188066,0.23229151397911846,30,34,71,65,3
0.0005786515169895634,0.0015125793682360831,0.06245456725272537,0.23356265327088016,28,34,64,69,3
0.0005392371128351203,0.0013604979913684069,0.060360239632058985,0.20628675286485268,30,30,64,72,3
0.0005472319560923269,0.0013239826010394912,0.058988484525397435,0.19875951047789725,26,30,70,71,3
0.000503895174096075,0.0010934200400411647,0.056012558407899184,0.17515094995563651,24,40,71,76,3
0.0004816459638660232,0.0011403971081345573,0.055184365188998837,0.1696753754279603,24,40,78,76,3
0.0007778971001568726,0.0014542533879945243,0.06751713177098435,0.20931495045511125,18,38,57,74,3
0.0009017473472042291,0.0016480249271579109,0.07774182147590707,0.2504259186600138,22,32,49,73,3
0.0008381780032835461,0.0018793684991990666,0.07592123161076923,0.29156331766561655,18,38,53,71,3
0.0005372143464276239,0.0019039196420838275,0.06402240719388967,0.31002298095692243,26,42,63,72,3
0.0005493492828582321,0.0018310549298075154,0.061738652961222,0.29383812046131014,22,44,60,72,3
0.000524935606716525,0.0016897800520585544,0.05824095149198633,0.26472516764587023,26,36,56,71,3
0.0005950876168757436,0.0015282757467935766,0.06163747244412984,0.22991783879413197,28,42,63,80,3
0.0005448452873900106,0.0015380828863195604,0.060704008229831755,0.23151558254002688,24,34,58,79,3
0.0005489512964574737,0.0014683811169012998,0.05662345904798642,0.2152925109709866,31,30,67,81,3
0.0005308806245148712,0.001275871496106154,0.052813256064341264,0.20466161882650405,30,34,64,75,3
0.0005446732790115451,0.0013847715765422863,0.05432370734004555,0.22834962564765182,31,38,59,71,3
0.0004984956731048347,0.0011946054025021658,0.05089983204160149,0.20409400897603452,26,42,68,76,3
0.0005315115095424334,0.0011562200900071705,0.05126334871524582,0.19245848996635045,27,40,72,84,3
0.0005373080028655186,0.001178717935522553,0.05311224243030429,0.19722911673367874,24,30,74,83,3
0.0005255297078378715,0.001180856901870932,0.048108688785981735,0.17788583746249262,25,34,68,86,3
0.0005764964066254251,0.0012283967935314598,0.0514379091598408,0.1844030131359729,20,36,63,89,3
0.000568115210289203,0.0012680812082718547,0.05344869231005576,0.18105891405696606,21,40,65,80,3
0.0005939417310114531,0.0014132400520515181,0.05371050649098207,0.19555148178073972,28,34,67,79,3
0.0006052332007073669,0.0013891249048424423,0.053487116185693066,0.18946971690768633,23,32,68,80,3
0.0005905444846694432,0.0013112072434532938,0.050883194802669784,0.19543935661782202,24,34,71,79,3
0.0005546760480961886,0.0012769004586845143,0.050393263039468936,0.19486151842435534,21,34,72,80,3
0.000572486908527916,0.001182871296359516,0.05037717314948254,0.1755197850835122,22,34,74,79,3
0.000544376864310196,0.0011374954474150643,0.052371648363740746,0.17933513027223805,29,34,66,78,3
0.0006064272611326573,0.0011913826393150206,0.05429689132867908,0.19107865499986665,28,32,70,77,3
0.0006373273532054305,0.0012378692103454793,0.05612153005040797,0.2021156746445433,25,34,74,79,3
0.0006172701053971634,0.0013027162629874604,0.05817822623885894,0.20600473956017373,22,28,67,74,3
0.0006657198913034544,0.0011844761625919996,0.05602207214872288,0.1957095534109702,23,32,69,81,3
0.0006682952348702224,0.0010972712250588359,0.05508652347974444,0.17937228719532436,20,38,58,82,3
0.0005930911733802665,0.001112350280012531,0.054970493483232595,0.16603837647042022,23,34,52,81,3
0.0006151455698291567,0.001084284097203175,0.05267557547961366,0.1673744417430463,18,34,57,80,3
0.0006234605642965674,0.0010669840243510815,0.053820422491047515,0.18200029169928933,23,38,70,76,3
0.0006449473156285528,0.0012617026691846137,0.0574919947067472,0.1929298079254253,24,38,75,75,3
0.0006496214300519733,0.0012968376541308273,0.0571695322003323,0.19693987708861746,27,36,68,70,3
0.0006460794170382594,0.001296299830717288,0.05795183031269375,0.200535786478067,26,40,63,69,3
0.0006417073378102645,0.001313835596715545,0.05647646663054979,0.18616936987572247,23,36,65,73,3
0.0005987610445201279,0.0011724907336665277,0.05331613155190844,0.18066589700193758,22,38,62,74,3
0.0006162894838371548,0.0011208857726839735,0.05353496885706284,0.18158302392704012,25,42,72,70,3
0.0006111463032557027,0.0011281270288908275,0.05530517210777553,0.17166645870503375,24,44,71,71,3
0.000626082978266519,0.0012634242125616104,0.05327971528904692,0.19160947026509934,24,46,67,73,3
0.0005971329259229166,0.0012299406305512287,0.05494738080060731,0.1860879296699867,20,38,67,71,3
0.0005439412618526864,8.989337913646182e-05,0.0278039026134691,0.01054329499668033,18,29,26,77,4
0.000548229375170304,0.00010436308199473385,0.027949095750916603,0.0106311738981918,18,20,28,81,4
0.0005466637958803829,0.00010216517517881736,0.02761414465722924,0.011779760471617618,18,29,24,83,4
0.0005381511431420754,0.00010098253468271494,0.02770803864293118,0.01197250469682684,18,26,26,75,4
0.0005380028752758634,0.0001004054944554491,0.027678728388864846,0.012240517081659241,18,28,26,71,4
0.0005322090249585463,8.224673357608418e-05,0.02702726720635487,0.010305318962412597,18,30,28,70,4
0.0005341947630266262,7.674304664793044e-05,0.02702564201122587,0.00901841498130401,18,29,29,73,4
0.0005282643557441492,7.675311575162488e-05,0.027018259502584546,0.008935794494928385,18,28,26,65,4
0.0005247290189014292,7.373650110028351e-05,0.026811920515540256,0.007886895083227652,18,32,20,58,4
0.0005193523685971703,7.366621442674526e-05,0.026860511119823204,0.00788536890148162,18,24,25,65,4
0.0005171797620608836,7.672398732299707e-05,0.026460277958588994,0.008141237352234614,18,22,27,72,4
0.0005112940607953123,7.058015003063556e-05,0.026472408760647628,0.007198551304223833,18,20,27,76,4
0.0005046678843000325,7.571493188464474e-05,0.026334438143225815,0.008902765596455399,18,30,25,78,4
0.0004962897607570327,7.683499258657878e-05,0.02610483030828265,0.009031640887245423,20,28,28,81,4
0.0004919543975597056,7.905371675072567e-05,0.025852856269637667,0.009699176934181016,18,30,26,80,4
0.0004864416619542953,8.551193368869525e-05,0.025776512494035467,0.010571539789916892,18,30,24,70,4
0.0004864856401341272,7.986706166943483e-05,0.025537758782156854,0.009725369767018209,14,30,22,70,4
0.0004790760792999916,7.691345506876132e-05,0.025334071158613105,0.009006170410835655,18,24,24,66,4
0.0008463018359200303,0.00010553202488992429,0.05153253783639035,0.010558538671236455,16,24,21,59,4
0.0010336683260486338,0.0002735608757163911,0.06396160332636913,0.018895451977728423,18,9,23,54,4
0.0009821578565741534,0.0002773412230105,0.05886066127247553,0.01893023221600635,12,10,27,67,4
0.0006583651318105928,0.0002584610686620525,0.04002470968176074,0.017774306956451835,14,6,28,71,4
0.0006284570798102569,0.000284376483129478,0.03941078103365018,0.02154201406168177,16,14,28,70,4
0.000495417564062217,0.0001236781230529272,0.027950268970251768,0.013207909508527745,19,20,30,79,4
0.0005061466968364048,0.00013247375354442226,0.02826882395312079,0.01243553940378522,18,18,24,66,4
0.0005185744084118346,0.00015446526700529597,0.028760204470125887,0.014329047193182017,17,18,24,65,4
0.0005246165002030139,9.380710953899378e-05,0.028534720490073363,0.010792477526889426,18,33,20,76,4
0.0005265263470548432,0.00011455975533247944,0.028622619540965892,0.012679118183213062,17,26,24,74,4
0.000531431644789393,0.00010878415966482847,0.02875816503092662,0.013418032002887185,18,36,24,80,4
0.0005378347491871819,0.00011023102309518474,0.029033530752994204,0.011544222421949111,17,32,22,70,4
0.0005432605180875046,0.00010027404455858983,0.029189128899691563,0.010848465011842922,18,32,24,77,4
0.0005493227339637614,8.212953055221325e-05,0.029300449221926386,0.009388280080041151,17,22,22,72,4
0.0005598274643702595,8.88594597076256e-05,0.029286438989977646,0.008857035097162376,18,27,26,68,4
0.0005688119402161981,0.00010755101847890398,0.029580480325229624,0.010318252831642179,17,18,26,72,4
0.0005666281492749019,0.00010413968713713959,0.029513314411634024,0.011021485697486028,18,25,22,63,4
0.0005698650062736692,0.00010731815097778696,0.02968272991914851,0.011775382783135255,17,24,24,71,4
0.0005744296419308726,0.00013270887633383904,0.029970424038013876,0.013130317576136549,18,21,22,66,4
0.0005780793452772791,0.00010534654989678963,0.029883532931141873,0.012137043784017237,17,24,20,66,4
0.0005826377527673411,0.00010524128032323373,0.030042472621539376,0.010782434511313069,18,25,24,66,4
0.0005835261392669529,0.0001060569120072894,0.030067861307330246,0.011127519189502591,18,18,23,72,4
0.0005849651583507738,0.00011416861552106068,0.02993278234646572,0.011834457133268899,18,19,25,75,4
0.0005816555437395903,0.00011683942626354976,0.030352265861727453,0.011710884943449828,18,18,21,76,4
0.0005846209844092192,0.00012300890518944846,0.030135267077587458,0.012174420440662161,18,20,25,70,4
0.0005815017740505513,0.0001154362444660701,0.029846869237633897,0.012041865457150504,18,20,25,68,4
0.0005817093062310884,0.00010277952167508793,0.029918010791346445,0.01155579120426721,18,27,25,68,4
0.0005856315230399648,0.00012810914860073784,0.02960231189342188,0.013008307239819253,18,22,27,66,4
0.0005876201202288337,0.00012484389562968014,0.029584530496055614,0.012802616932795306,18,19,22,65,4
0.0005856146469830075,0.00011898786511965055,0.029544569366254228,0.012453551561998346,16,18,21,68,4
0.0005853495579344281,0.00011008596646431243,0.029473110335483707,0.011115956532242132,18,18,22,66,4
0.0007457328190620085,0.0018797672592652166,0.09392594969155113,0.23121664816886522,34,28,68,55,0
0.0007484339413724245,0.002003901366676956,0.09475571340041215,0.23808279293070475,34,26,78,57,0
0.0007363003330482237,0.0020203502616527626,0.08775349071296487,0.2328552603977203,28,22,73,61,0
0.0006977046196398437,0.0017703058649458025,0.08659458557907193,0.21736011460102977,29,22,72,61,0
0.0006692987976417013,0.00197098547564824,0.08578079405484151,0.23819686581839225,32,28,71,62,0
0.0006612093347181474,0.0017222569702668021,0.08479212777501055,0.21804147013580621,23,36,66,62,0
0.0006854979421947019,0.001956663756580061,0.08730329001622765,0.24960323333062104,28,30,72,65,0
0.0006997006825820063,0.001976685794693993,0.0852357871711269,0.25028764687787836,34,28,69,65,0
0.0007765871169180776,0.0021161958074320374,0.08974132382984909,0.24919001362352955,26,28,72,64,0
0.0007574259714639796,0.0024443336836391092,0.08702587310974097,0.2749096515320126,28,24,82,63,0
0.0008657294220426676,0.002163429772058283,0.09474031402658929,0.2612597952698239,20,28,78,65,0
0.0008889485430457318,0.0023784529533362334,0.10317514052012215,0.28860053433932636,24,30,74,66,0
0.0009436131495951695,0.0023839095321662685,0.10435864706399951,0.27427018648825624,22,30,76,68,0
0.0009667704422941689,0.0025068530460738677,0.11187116581038349,0.26761752422243945,26,30,77,65,0
0.000958390176988439,0.002334809901810038,0.11678894629553303,0.2423824739059679,24,26,73,62,0
0.0009959832049955938,0.0021297537918447164,0.11458064102952684,0.22441307884575415,26,20,73,62,0
0.0009040473235217472,0.0021870873368810603,0.11419893450291767,0.23930627041108582,30,16,64,63,0
0.0009433793346780246,0.0021372109270639543,0.11779729877025734,0.23476702119458778,28,24,61,65,0
0.0009927152556716732,0.002534924929800172,0.11575404635798864,0.2750492002859304,26,24,64,63,0
0.0009209866292537951,0.003302169617892511,0.11777412270752108,0.2864153120135499,30,18,68,73,0
0.0009639789811730981,0.003077490474994665,0.11491251101026873,0.25651231507843963,20,16,62,66,0
0.0009323465647983941,0.0030936745755852486,0.11182558623357998,0.25852331958062236,30,18,70,68,0
0.0008695576567433247,0.0026590433513412775,0.10755785162680842,0.229031277651244,20,22,75,65,0
0.0008796717613223682,0.0016309300813999103,0.11128377821233446,0.18893182581024676,24,32,76,62,0
0.002380322344526657,0.0029065540868467,0.2784269047458355,0.293000767821147,30,18,61,61,1
0.002532754879915304,0.003357304701069187,0.2944920049000001,0.320878682930765,26,22,55,58,1
0.002521190322519206,0.003561297664098353,0.2901233168002756,0.3210428993840521,28,18,52,61,1
0.0025118737876774168,0.003003557974441652,0.3117598036102772,0.30575970756130993,34,22,51,58,1
0.0025857820643732116,0.0031557350649431683,0.31745906704694965,0.3378524780917334,30,20,53,59,1
0.0023921875414582303,0.002760478841393475,0.3033057813742824,0.2936741410030706,28,18,57,56,1
0.0022511286856710384,0.002896749934841996,0.2751642569664041,0.2843405736473111,30,16,63,52,1
0.002039405786577342,0.0024134332599210174,0.2479841833850438,0.26932221901777287,26,18,67,60,1
0.001937505093971341,0.0022569641474873975,0.2175870213634746,0.2482111907628447,30,20,78,53,1
0.0016977356832033753,0.0022818532874230454,0.1990607353866465,0.27203250374787624,36,18,80,56,1
0.0018466668982757837,0.0023848864528532433,0.2000858114836991,0.2649001419498503,32,24,79,51,1
0.001562542621786448,0.0022803589908923865,0.19889850642516135,0.24207142676284488,30,30,81,53,1
0.0018460982386736804,0.0021281995022798695,0.2321560150427698,0.22825793821759852,36,26,75,63,1
0.001772824061222673,0.0023319684922474926,0.23042505866002394,0.25151109511664593,30,24,78,63,1
0.0017040516405269464,0.0027279817990223023,0.22761616997865028,0.2852739636638887,28,22,78,51,1
0.0016491933523833104,0.0024807293596088836,0.21739074001307376,0.27896625802616226,30,28,74,58,1
0.0014368229715432728,0.002452792409917355,0.19683477453287643,0.28270692849050666,36,22,73,68,1
0.0016408887476462841,0.0021682886954896776,0.20894472879655285,0.26035470097843805,26,26,74,66,1
0.0015805101262354542,0.0018578251485467728,0.19526628928034176,0.2089070142681726,28,26,72,70,1
0.001745680138567482,0.0021381595321949645,0.20281108592303593,0.23356713400739004,28,24,67,57,1
0.0017116799230982643,0.0022697129857858645,0.20554670226783353,0.23321423376273112,36,20,65,54,1
0.0015695801717243289,0.0020683617771276677,0.20344022604923295,0.2171390160612296,38,16,68,56,1
0.0016865966061069713,0.0022770635024791843,0.20848330584176225,0.2310301238451622,36,18,68,60,1
0.0016863161463165047,0.002094740130854863,0.20638573415991282,0.19413467464816792,30,18,66,59,1
0.002315114687859349,0.0005324876114873516,0.3431805970781291,0.09264862063836109,34,44,70,84,2
0.0018552168405156701,0.00047681705184372884,0.29925225937575517,0.08677318862706493,32,42,76,88,2
0.001867352405322506,0.0004927815721632822,0.3100568930202286,0.09074299334705042,34,42,78,88,2
0.0020566787306472265,0.0004787963904891483,0.3135739035523048,0.09185423791464516,36,40,75,90,2
0.0020180861766340877,0.0005190255335821573,0.3296071385599905,0.09034284366820164,36,40,78,85,2
0.002253574117283932,0.0005366256475119254,0.3240317435059876,0.09178844675455794,34,40,78,82,2
0.002201349304405171,0.0004882096936756562,0.30699735625405156,0.07961304319197722,28,36,74,82,2
0.002006378775759364,0.000458766860882976,0.2809787846350811,0.07417229287427346,28,42,75,79,2
0.001779447125801662,0.0004076914704642055,0.2741856857218361,0.07511257945576229,32,44,73,85,2
0.0018675549738040127,0.0004623170357474553,0.2727699034435945,0.07319888002772362,32,40,67,80,2
0.00166716125453195,0.00046096020939484706,0.2663413283675678,0.07671787667995204,34,36,75,82,2
0.0017278666029684974,0.0005042441515122391,0.2621089284296591,0.07975235326935111,38,38,75,84,2
0.0016622278199270204,0.0004694800941736813,0.2563735330194271,0.07547336062759362,34,40,76,81,2
0.0016894428863182852,0.00041666184432638157,0.2527447140736536,0.07634821231539325,30,40,71,85,2
0.001726171202612715,0.0003914849022500199,0.23938803428753694,0.07187206379533954,24,44,69,90,2
0.0016999278192629612,0.0004006557897865595,0.24126880763429676,0.07374681742954994,30,48,69,89,2
0.0016386241918574316,0.0004288595475727315,0.23716203722363394,0.07416605581895296,30,46,70,88,2
0.001800314457986976,0.00035208832259240263,0.26682290686140475,0.07202801404355247,32,50,75,93,2
0.0020668488022939392,0.0004024910244713248,0.2875595539216982,0.07897153707287523,32,52,70,85,2
0.002071614076653619,0.00042217462414849486,0.296780289215695,0.08147115478349953,36,42,70,86,2
0.002098145497425942,0.00045701299519208046,0.2966162241677732,0.08518114604924104,32,42,71,91,2
0.0019189764979851388,0.00045449843127086875,0.283867160106449,0.08510031078313218,33,48,74,92,2
0.0018817383016407235,0.0004174801575185478,0.2734225277731891,0.07748695016981831,22,52,85,92,2
0.001839631665659873,0.00041343195015920806,0.2493769085674019,0.07614325594883273,26,58,83,99,2
0.0006810571811204399,0.0018356987610669846,0.07492946504075557,0.29789573276567405,24,40,71,72,3
0.0006609461052272158,0.0016514733953082092,0.07218308144939964,0.27711858904586895,35,40,67,71,3
0.0006609447100989144,0.0014541168844850354,0.067476329623659,0.25149144481490515,28,38,66,79,3
0.0006267674951395517,0.0014769345870947897,0.06235050748227965,0.2514554630631318,30,30,69,77,3
0.0006289584042089651,0.0015167832034453542,0.06449905244573582,0.25547145625107676,24,32,69,79,3
0.0006148851703044225,0.0014322485522709552,0.058970759548674485,0.24638595224611745,24,40,78,81,3
0.0005934593570593042,0.0015626986314961164,0.06244723385741734,0.26132061258835504,26,38,68,83,3
0.000627758510168782,0.001479514177027482,0.06294042186518861,0.23442358237478822,24,40,66,76,3
0.0006044017170589218,0.001489641720356525,0.06042769089817677,0.20856821431691885,24,44,70,77,3
0.0006356611039098044,0.001449751077511317,0.05944479059904321,0.19963489999356784,22,38,66,82,3
0.0006074451207406469,0.0014600616630546736,0.057550414505857315,0.19768279995430488,28,36,64,86,3
0.0006141748748245211,0.0015465684751425563,0.05959315373160603,0.21545717226167235,26,38,59,80,3
0.0006288935680179938,0.0015229604504174892,0.05944824979800757,0.23036553747047772,22,36,64,77,3
0.0006341680285761032,0.0015996804173578109,0.06113340407495067,0.2636871106710364,20,40,64,76,3
0.0005977465681958565,0.0016523953263308446,0.06046649387822355,0.2683231339878587,24,34,67,74,3
0.0005809122141865562,0.001556887547887963,0.05583104881376585,0.24734449266229777,16,32,72,78,3
0.0005848876723316175,0.0015068505658545537,0.05619923037727847,0.2285011949441518,22,30,70,85,3
0.0006106701663765126,0.0013436029077053973,0.05568809666177359,0.1951695012365129,18,28,74,86,3
0.0005248575648202926,0.0012888939063149976,0.051039126541514886,0.1737706206657866,28,28,69,76,3
0.0005251024762583526,0.001198339212086245,0.05041513900189146,0.19406093119046092,22,36,72,86,3
0.00055329470673249,0.0012149297018210579,0.04924973242629088,0.20133775590798497,22,44,74,81,3
0.0005300951219941127,0.0012075442989721542,0.050110451935381814,0.1944032838047238,25,48,68,76,3
0.0005313124349630794,0.0011032743647936814,0.05053694242297302,0.1947741874092279,26,42,68,84,3
0.0005205949321316715,0.0011770749324747204,0.05035695223914623,0.19069975792095095,27,42,70,78,3
0.0005674296597531138,6.750938813045995e-05,0.029183453058100408,0.007488554547461893,16,33,21,74,4
0.0005644336197003358,6.651661742277091e-05,0.02913689467164791,0.00739340744679934,18,24,23,68,4
0.0005549238415470547,7.205303487922776e-05,0.029016891848859937,0.007474909733962292,18,23,23,72,4
0.0005492652178323589,6.710274454388978e-05,0.0286962483147865,0.007572403439888978,18,22,23,71,4
0.0005458128379627769,6.469470628478203e-05,0.02851726018785499,0.008043847024706645,18,30,26,71,4
0.0005408895926746737,6.568803720703402e-05,0.028248008798400566,0.008085038041106728,18,22,27,68,4
0.0005332402907747651,7.281432002878331e-05,0.02797675415209947,0.007873968604660064,16,27,25,66,4
0.0005310511016491462,6.511809685681152e-05,0.02772283288709577,0.0073938559176195545,18,24,24,72,4
0.0005240004929945203,6.138740749927476e-05,0.02776615573279614,0.007452815948359775,18,24,24,72,4
0.0005174133436349755,6.510791446798793e-05,0.027751736611316857,0.0071934061437580864,18,22,22,71,4
0.0007524988398627268,0.00017453137047574656,0.04645720553697354,0.013579135624515772,20,11,21,72,4
0.0009817249226939575,0.0002181657627175924,0.06091218068976785,0.01800341330393444,18,12,21,55,4
0.0010600119152525055,0.00025348214056035683,0.07150847560448594,0.01963470127211682,16,14,27,59,4
0.0009718345916396739,0.0002868455522190896,0.06507593955970982,0.023124278320602293,16,14,25,56,4
0.0008179605259486484,0.00019574492286686664,0.054479703611222244,0.0199620282882963,16,22,24,62,4
0.0005451535340776807,0.00016324548174957156,0.028905602033811626,0.015622347794100214,17,20,29,67,4
0.0005471477163989185,0.000158788043281442,0.028834497346245595,0.016343883393271884,18,20,31,77,4
0.0005522252603673767,0.00013897710932346538,0.02881103175263255,0.013280113745053416,16,20,23,66,4
0.000548018412212745,0.00010689978064076521,0.028160423565288917,0.010444884082843563,18,21,25,69,4
0.0005504799426975865,8.523515208920654e-05,0.028342267243934554,0.009992522359192409,18,32,23,72,4
0.0005553363699536886,7.041292505599161e-05,0.028388921376078353,0.009185779049259768,16,29,24,76,4
0.000546782066877315,9.41773060548827e-05,0.027901557556378298,0.01068435605023968,16,28,22,78,4
0.0005457392290331694,9.098045784244084e-05,0.028137705598342173,0.010607502476104484,18,29,24,80,4
0.0005462340736733609,7.997328235980875e-05,0.02815653685127383,0.010331598373703529,16,26,28,78,4
