f1ch1,f1ch2,f2ch1,f2ch2,f3ch1,f3ch2,f4ch1,f4ch2,Category
0.0007082660117472441,0.0032619032184231095,0.1270684764396482,0.3616328066178122,38,30,70,53,0
0.00070291552978922,0.003151807462894527,0.1285583247736687,0.35469468097004614,38,30,71,50,0
0.0007384474123896337,0.0030417553929273588,0.12828070746711875,0.33575261751511665,38,34,71,47,0
0.0007344230178400303,0.003111734594557672,0.12433388082117462,0.36077598766654567,34,32,71,51,0
0.0007203620267744434,0.0028574022514905304,0.11743982927615093,0.3524899078552721,36,32,74,52,0
0.0007208871088775825,0.0029225733983508544,0.12172480101071083,0.3503958671559202,40,28,75,58,0
0.0007606695372422904,0.0028285054020750562,0.1252823955011781,0.3377287784709228,40,26,79,62,0
0.000814198777593151,0.002310691151775029,0.1275859630473294,0.2718573883031464,34,30,81,65,0
0.0007622991895732891,0.0026156704950617087,0.12578551103546834,0.28112069869209544,42,24,80,62,0
0.0008189324211891084,0.0031399994243477597,0.12652102423313827,0.3139627249386488,44,20,82,58,0
0.000772413699957652,0.002959904934276122,0.11959645480939464,0.3097138670292447,40,20,86,56,0
0.0007596857119685814,0.003191973003071167,0.1286536573997146,0.3559098235984006,40,28,84,54,0
0.0007470012099270854,0.003333045897295068,0.12906038054359742,0.3625192474210167,36,24,81,51,0
0.0007325936295289736,0.0029813760454476678,0.11990385042681116,0.348110097532032,32,30,81,60,0
0.0007560763056510821,0.0029509803034222975,0.1289633184161163,0.3312529517783963,38,32,80,61,0
0.0007294947817911027,0.002894621847292684,0.12473998556873489,0.3364370997586337,36,28,78,65,0
0.0007004747762727088,0.002801875400258495,0.11630571444311948,0.3275955200176367,36,24,75,69,0
0.0007939536844168709,0.002964658047104234,0.12584780010893368,0.33458790482638856,32,22,73,58,0
0.0007402175721619716,0.003170377009000745,0.12536297921556083,0.3668469140494153,36,26,79,54,0
0.0007730951103988915,0.0029131549249208793,0.12962459213914954,0.3452307381665656,34,28,77,52,0
0.0007883310352296023,0.0028674245600202822,0.13789784445538233,0.3600893112936399,36,34,80,55,0
0.0007554263867278594,0.003018805856948999,0.1295791163555891,0.37243976702947174,38,28,74,53,0
0.0007760896609599255,0.0027930497011274015,0.12639604018937436,0.35639726932136373,28,24,71,56,0
0.0006505265707526055,0.0026358192654939937,0.11946569645602588,0.3497439387884477,38,22,73,59,0
0.0005904850802169734,0.002586038797799926,0.10733142419010673,0.3369699360560355,36,28,78,54,0
0.0005921786860968579,0.002243440300168056,0.10676664155461474,0.2899813384316818,36,22,85,59,0
0.0005210700369013077,0.002604773663707425,0.09629719955486458,0.2978138918590853,40,22,85,49,0
0.0005648509080432233,0.002657808062269793,0.1031141262371855,0.2965405276239722,32,24,82,50,0
0.0006475846300555601,0.003172293508132994,0.11261092837245992,0.32024199444237894,38,18,79,49,0
0.0006438790575506892,0.0032431037405218797,0.11092741338707822,0.3538866564956497,36,22,81,55,0
0.0006685729268116733,0.0029254836992714923,0.11581604308608497,0.3469141009052325,42,22,79,56,0
0.0006339857487598086,0.0029864791274882845,0.11003289387937722,0.35201246360249433,40,24,81,54,0
0.0006502610254989634,0.0027185239723606443,0.11025224147345383,0.3111744930429,32,24,85,57,0
0.0006439484683365187,0.0025785300267641914,0.10978264908345765,0.2621511401182712,36,24,81,63,0
0.0006699773297943811,0.002446503404228207,0.10771749672320313,0.25963083193337455,30,19,81,65,0
0.000655739094839906,0.0025572950524617184,0.10735454759059775,0.25850684501773213,26,20,88,58,0
0.0006319118080820973,0.0027699693061070023,0.10179720451461165,0.2929465317331472,30,22,82,58,0
0.0006448780623385912,0.0030598975208849083,0.10602266209358854,0.32492909798869196,28,26,77,51,0
0.0006895545784248808,0.002595688015218732,0.11098202116204925,0.3153834277078902,34,28,74,57,0
0.0013098169715841307,0.0035867475806307687,0.14453317514167321,0.39034673287241123,22,16,69,66,0
0.0014208340086044207,0.003875023833865664,0.1647670768016885,0.44263584376697895,18,18,70,68,0
0.0015145583395228613,0.00387571700911909,0.16409661991396157,0.4544171900704081,14,22,72,68,0
0.0009060364574110793,0.004324073106341223,0.14058917453789754,0.46891695957197527,38,24,79,62,0
0.0009859487352203084,0.004762776913980189,0.1341981555149513,0.5221134450103583,30,20,77,57,0
0.0009352099462838407,0.004511177238533816,0.12015106545397881,0.5244623408973331,26,22,78,62,0
0.0009008323868705183,0.004710872818176528,0.1240748193625635,0.5475752110425949,32,22,77,59,0
0.0009524100936001073,0.004725221343212991,0.12596422179098393,0.5391407693220069,30,20,71,58,0
0.0008218333884347765,0.003889385843867955,0.12503036230913075,0.46438605296611846,34,22,70,62,0
0.00028263913409541414,0.0003822889117233842,0.018340613356955634,0.039670684724062974,11,18,41,69,1
0.00046957876647682803,0.0004913524666601875,0.036562227934398756,0.05381735627830786,10,22,44,65,1
0.000724067962540806,0.0007223396634770375,0.061987604389874607,0.07349747341817943,20,20,48,69,1
0.001000540415665703,0.0011785599617430396,0.09351579538794,0.11116454923525493,22,20,56,66,1
0.0014579888258500458,0.0016544238465200564,0.13323214369001043,0.18926024431403882,20,16,60,62,1
0.001911168686636522,0.002402137844303051,0.16501139850060043,0.2915711948047737,14,22,57,55,1
0.002763412757840879,0.0030329368677654987,0.24397195448798747,0.3858245961552369,14,24,54,56,1
0.0038233441567313087,0.0036664378981189384,0.311754220544247,0.47551520625477767,16,24,45,61,1
0.004059778957245662,0.003281200106893631,0.349657669452655,0.4576710423465942,16,26,48,60,1
0.004218524426194441,0.002959723100951298,0.3834361593097288,0.43450140720142455,18,30,51,64,1
0.003708180128123618,0.0027173004022955226,0.35886894155915366,0.4077140047064011,20,32,53,66,1
0.003616322974715393,0.002370114958400519,0.33946985685386044,0.35338296710780653,22,34,53,72,1
0.0034592422466297196,0.0023748153462233653,0.34486555745117975,0.36844027593701434,22,32,57,72,1
0.003482769934987526,0.0022127652868113947,0.3374793081196833,0.3309507955189205,20,30,58,81,1
0.003400945326101684,0.002283413818949129,0.3186901892611942,0.3276554678676192,24,26,60,78,1
0.0032151040626954737,0.001964614314365005,0.3243273727191397,0.3032216604389212,26,30,52,89,1
0.0030256795296570082,0.0017481285466513824,0.2878244137222439,0.26013355918193887,20,26,60,88,1
0.0026287692483330065,0.0018040193911964433,0.2678413263172131,0.27534951173384475,20,32,61,82,1
0.002608038415651508,0.0018956551036982254,0.27691097273130133,0.2822093780594348,22,22,60,84,1
0.002342055282835187,0.0018299888804445999,0.2614934616554226,0.2656609784365251,26,30,59,78,1
0.0022945855328181794,0.0019855831471363734,0.2544431321789503,0.2762168687376843,24,26,57,74,1
0.002495565891348333,0.0017211112025932185,0.2694229871153057,0.2643117388078229,24,32,45,77,1
0.002908540160988467,0.0015220551511129312,0.2825254502347547,0.2432264171860084,26,30,48,81,1
0.0030422749457126312,0.0015387886798974388,0.2980932009180725,0.24597298690052266,26,32,49,85,1
0.002942086136147718,0.0015307534286514344,0.2834947689534466,0.24303991282957774,20,38,58,90,1
0.0031324290418272764,0.0014239793273669058,0.29457038879652286,0.23076861191209658,24,40,59,91,1
0.002988335951327287,0.001647761914339078,0.28024325846083675,0.22839798938353398,16,30,66,80,1
0.002844438081517238,0.0016647785416825209,0.28098388178746897,0.23847132038317714,18,32,54,78,1
0.0027381119405894866,0.0017797212983636452,0.27957142958002873,0.25613963838218545,20,26,56,68,1
0.002607697556054579,0.001810417305936967,0.2623819159412525,0.25908405028165926,20,28,55,64,1
0.0019368300289225643,0.0015926419238477543,0.2323066511013069,0.2431707562147124,28,24,66,67,1
0.002366179791663649,0.0015770204634988614,0.24565583487810222,0.23374035880301733,20,24,61,69,1
0.0028646578519388338,0.0013154654135695354,0.27279638680892676,0.2281067288414791,24,40,57,78,1
0.002569491742633352,0.0014031337923759348,0.2695200566578863,0.23554097820338696,26,34,61,74,1
0.0030439480206340195,0.001497821915578973,0.30406966157141013,0.24185401327990372,20,38,56,80,1
0.0032631288907170237,0.0016016215934138908,0.32588898378500947,0.24781427019339566,24,42,58,79,1
0.003739344638192857,0.0018397785337764914,0.36329764993791824,0.24149103529859575,28,32,54,78,1
0.0037623541884482365,0.001683273507135913,0.37270751990263656,0.24395736900056889,24,38,46,77,1
0.0036916367457684395,0.0017500441099981376,0.37165612652163565,0.242902520734017,20,34,51,78,1
0.004096616406722291,0.0021980278222437284,0.41365899166308384,0.287708062753966,20,34,55,77,1
0.0041290161378524474,0.0024267510254022623,0.4004311690634776,0.3153651416527163,20,30,55,74,1
0.004576230071247728,0.002262599018816194,0.4334460034999797,0.32517169427620474,24,34,56,81,1
0.004783584797022022,0.002359668914827555,0.45421120563864803,0.3673233866897519,24,28,53,72,1
0.005902351684746386,0.002493437402046534,0.47854401858432594,0.406115599656655,20,32,48,72,1
0.005436193708040082,0.002578094489920893,0.47292693794714363,0.41219409499856996,18,34,52,77,1
0.005773873766865949,0.002656501023483407,0.48325753046712366,0.41334437572654315,16,36,47,75,1
0.0059452025531695875,0.0025444233408801514,0.4869927726429007,0.39025662675538436,20,36,42,81,1
0.004482003798733226,0.0023664681810399045,0.3873928977444988,0.3354071735522007,22,32,48,79,1
0.0013826790213269933,0.0004547040043685799,0.22058417343309394,0.07445584608685846,30,34,65,77,2
0.0013419373787542433,0.0004698230454074657,0.21074413543724024,0.07332533152679324,34,32,67,76,2
0.001301810383924018,0.0004678829374995272,0.2027561857611147,0.07098639271495921,36,32,69,74,2
0.0012677351697053135,0.0004407067968398496,0.1840414127206413,0.06849663298810268,28,36,68,75,2
0.0011617422018146794,0.0004762412899061117,0.17961319106039259,0.07770518371239907,36,36,75,73,2
0.0013532697349776669,0.00047494149443418017,0.19167341603193846,0.08293234627983724,26,44,68,83,2
0.0013438513340716784,0.0004790226010968534,0.1835382970294468,0.08703519979684868,24,46,73,84,2
0.0013522635277271042,0.0004883482638916932,0.19074296202597743,0.08301791343387675,28,34,68,84,2
0.001286502201755209,0.0004873276068660351,0.18491341871269903,0.07915809661595162,30,32,62,85,2
0.0011049031689900305,0.00043568034774259625,0.1739236762099339,0.06818682803485705,30,28,61,84,2
0.001203693168949515,0.0004291685934722818,0.1814436465773629,0.06583725742376245,28,28,60,77,2
0.0011507870667514873,0.00042230860307930344,0.17541232796883113,0.06663029189155306,34,32,64,80,2
0.0010640457065942501,0.00039307151871735557,0.16802328272811579,0.06029346527894965,28,32,73,79,2
0.0009733799563818586,0.00039425241890084526,0.14083220519463305,0.06086237917806508,22,32,76,82,2
0.0008181080924308068,0.0003689659985550459,0.1322118218890724,0.054907775773609835,30,34,77,82,2
0.0008664875464238472,0.0003670865159241226,0.14271202103460381,0.055550283047718155,34,34,77,84,2
0.0009963298757260156,0.00036720017541093765,0.14724900246246467,0.05722564024079286,26,34,72,89,2
0.0012033221761395423,0.00037385454341087025,0.180538125720952,0.05910685464498688,28,36,75,93,2
0.0012043426606722315,0.0004131937870739125,0.18071316829020564,0.06329260725988188,30,36,74,91,2
0.0011890095373098932,0.0003648946706302004,0.16828673858121757,0.05988344621342595,28,36,73,91,2
0.001117894716295412,0.0003639373286659327,0.16628585700766765,0.06356369593187683,26,44,75,92,2
0.001073356208955108,0.0003445107944619032,0.16766414338089494,0.06050024654913347,32,48,73,84,2
0.001046722082776636,0.0003397098543615698,0.157707545574743,0.06257948753368503,30,52,70,86,2
0.0010487275506502333,0.00036944287886477196,0.15597266111420174,0.06184917709582317,30,42,71,77,2
0.0010165021631348213,0.00035717880239792305,0.14435176429942292,0.057771941524461044,26,32,69,82,2
0.0009795969576060896,0.00040227345671119965,0.14029902266868668,0.0629629516792338,30,30,64,78,2
0.001058462870687661,0.00040306078022983306,0.14664462586572555,0.05838924124322969,24,22,64,82,2
0.0010600787931592608,0.00040305421374355966,0.16475133271140877,0.05935335380515581,32,28,59,78,2
0.0012241032298351295,0.0003986049688299341,0.18557118992421465,0.05789920844660597,30,36,64,81,2
0.001329927052264268,0.00035609902933787877,0.18968662508389197,0.05642750428887513,24,46,64,80,2
0.001420488763659312,0.00041067677954657856,0.19401830931824576,0.06121285715463704,28,38,70,80,2
0.001213994116506811,0.0003895925195365795,0.1715303469767949,0.05907980650617113,26,32,67,80,2
0.0010852579123052123,0.0004122553784812848,0.1568086962744285,0.05964111967054037,32,34,68,76,2
0.000999500447443134,0.00042234530609665694,0.14447078149803078,0.05931015518164123,32,34,68,72,2
0.0008842502160666041,0.0004273861582200918,0.12976980108847574,0.055872019153280515,38,26,75,62,2
0.0009308578672949414,0.00041237000284517154,0.12913354157888615,0.0571131191174057,36,30,76,66,2
0.0009726225851369914,0.0004284179914402898,0.1423714617142255,0.055274452324610195,38,28,73,65,2
0.0010728962352955643,0.00043481804171932836,0.14812892325139382,0.05488886107676423,32,28,71,77,2
0.0010848987882825544,0.0004546551735794454,0.14716524229466624,0.054476575037864176,30,26,66,78,2
0.0015421784759343182,0.0015835178525611937,0.18292154414000422,0.10875096722471427,22,8,71,61,2
0.0018957244653383038,0.0016579293848097728,0.21063342269453683,0.11943242063286216,20,6,62,66,2
0.0029840841128329493,0.0016208865391896543,0.3145204533502655,0.12630748436165087,20,6,63,65,2
0.0036582147972370276,0.0006193783115584012,0.41314370620740554,0.09621207191962118,24,30,56,72,2
0.003823647187705918,0.0006947981391875222,0.47558797444699,0.11199292717751598,28,32,58,71,2
0.0044416670456319685,0.0007477940727977991,0.5295112762735934,0.11907582367722815,28,38,60,77,2
0.004101583786888797,0.0008231688887495067,0.4654695781689899,0.12771372495041614,26,34,61,78,2
0.003499333201421567,0.0007875464970197963,0.4537066860048049,0.13283802697902547,30,44,64,79,2
0.003023376019726142,0.0007279835952186664,0.41405128954357084,0.12335674232004293,30,34,67,79,2
0.00040702256650248267,0.004097025966687268,0.0499387140828273,0.5191924125085478,28,24,70,49,3
0.00048040863153741176,0.0048915995466823564,0.061398642311122215,0.649906463645414,30,32,64,52,3
0.0004938737129321037,0.005113027577859891,0.06506676831722648,0.727434616112326,32,30,70,54,3
0.000493088870305343,0.005080314440044131,0.0649754141559625,0.759538894768613,30,30,73,61,3
0.0004192655388546241,0.004714577458802765,0.061675782053270484,0.7171645423742457,35,30,77,61,3
0.0003866841288410185,0.00457227735934712,0.05554832332625713,0.7137973979018195,34,34,74,69,3
0.0004079443165633136,0.0045411174571247945,0.059534794038497645,0.7233971717018269,35,34,70,75,3
0.0004000116871765467,0.0043080704092196154,0.0566733632528391,0.6591404328369229,32,34,68,76,3
0.0003951297905791924,0.004031786383930681,0.05751661472768491,0.6568928311507336,27,42,69,81,3
0.00036378780309503125,0.004186262926754249,0.05912090080384949,0.6550682481987471,28,38,75,72,3
0.0003737172320112367,0.003791360106425772,0.0584835032147174,0.5793040671432195,32,36,76,76,3
0.00042990929406662833,0.0043964731945819405,0.06534954017050879,0.6436075648269386,34,38,80,68,3
0.00045516783913493626,0.004801745577813531,0.06836514910082059,0.6314680476754765,36,34,77,63,3
0.0004928286632608997,0.004644104196902506,0.06802014945869231,0.5889489193513056,34,36,74,63,3
0.0004744747526994075,0.0047609153536646185,0.06596507260981496,0.6049436384897016,34,32,77,63,3
0.0004172421291756704,0.004526319868674788,0.062183771102380575,0.5904737387371484,34,34,74,66,3
0.0004091818334672232,0.004322561602086951,0.06292384572601382,0.6078651523959396,36,36,76,70,3
0.0003731207865141821,0.004159119057770041,0.06351122040770239,0.6140423019545408,36,34,79,71,3
0.00039941283440590643,0.004059406624822231,0.062400541982933135,0.6166343982524017,44,34,73,73,3
0.00039446890999892065,0.0037922553106071893,0.061879180110513764,0.65375494446149,38,42,74,71,3
0.0004212426421052722,0.004065335540115248,0.061053954090813066,0.6535995141482792,36,36,74,71,3
0.0004513976153601583,0.00428847885442004,0.06341738318964238,0.673537012500992,34,32,74,72,3
0.00048484178981216225,0.004336429248621803,0.06638252289441962,0.6458158285106046,26,32,72,72,3
0.0005182031486191032,0.004033623421162468,0.06890367907908279,0.6308864688366519,28,40,71,71,3
0.0005189181944454796,0.004114225268198937,0.06788110947295424,0.6215627152160991,27,34,76,64,3
0.0005095074461983205,0.004320010835912736,0.06901363212191215,0.6480264224026745,28,32,72,69,3
0.0004994073829688939,0.00477006855359078,0.07012714339335957,0.6754239404220493,33,32,69,67,3
0.0004868245619319289,0.0045220846166107555,0.06833162441322098,0.6337544014321298,36,32,74,62,3
0.0005259083048086318,0.004303832076865595,0.07036775333093695,0.6272504112408952,36,32,67,64,3
0.0005424403011972224,0.00419869505816435,0.06920455015945162,0.5921089828441228,28,30,70,70,3
0.0005442629849995097,0.004810801882855773,0.07094049340727038,0.6222440673658259,32,28,73,69,3
0.0005243439771815031,0.0046378224922852965,0.07200154551722944,0.6263600505907045,26,28,75,74,3
0.0005057347111607894,0.004384397424009125,0.07143101508166723,0.632628644666924,30,34,71,71,3
0.0005155228230697328,0.0049242040847466756,0.07001356386142371,0.6690774322613519,24,30,68,66,3
0.0005119042497433264,0.004623678776484261,0.07004791469118943,0.6440768894378323,30,28,72,65,3
0.0005211744526449316,0.004660610233423353,0.07221173599534127,0.6660816992026869,32,30,65,63,3
0.0004938464072114105,0.004557214364128317,0.07095139602138727,0.657454573060281,36,26,69,64,3
0.0005168916803617158,0.0049369335387234375,0.07288961910725811,0.6616871740784568,34,32,72,66,3
0.0005476565002932591,0.004870966864754879,0.07135051285559631,0.6563718594979414,29,34,67,56,3
0.000523549929484233,0.003954383852064387,0.060444367800184244,0.5217052467896469,20,26,70,51,3
0.0004969808004543086,0.0031331612771450445,0.04915898388462639,0.38076604733443487,17,18,65,48,3
0.0004887239540473224,0.002588619452432169,0.04154563147664802,0.29914793823017377,12,10,62,57,3
0.00030438571226036615,0.0024647919193529697,0.032116222146683276,0.29188525878978416,25,18,59,56,3
0.0004090537492611477,0.004008097174546539,0.04598468442354425,0.47494821002816484,26,22,62,50,3
0.00045533650263995687,0.005125970733395299,0.05657731142062062,0.637471490743336,32,28,69,50,3
0.0004407751691250301,0.005787612869527463,0.058769626489775705,0.7434845800270066,34,38,68,53,3
0.00046651145577107644,0.00575238554963038,0.06624910273758619,0.7872960032690854,40,36,69,59,3
0.00047522289169974597,0.005298695258393853,0.06607557191712393,0.8065533683161534,38,40,72,66,3
0.00022107614164634706,0.0004744864051099157,0.02776152128826301,0.051584987433222866,25,20,67,55,4
0.0002396218147683628,0.00037982057744169093,0.028867696886624578,0.04599285410198237,24,26,61,58,4
0.00023275907776439686,0.00040104681222764637,0.028471723974400946,0.04239141860909538,26,20,68,53,4
0.00024311854033276577,0.0003801253223634922,0.028589133407224476,0.04092195907874795,24,22,59,51,4
0.00022112412144871887,0.00035704799794358415,0.02782080599326015,0.036594767763038494,26,24,64,51,4
0.0002116314144399136,0.0003976853619852054,0.028290814223884384,0.039516240389895534,30,24,60,52,4
0.00020081813818497528,0.00039469154540524356,0.026886473568844358,0.03886864157364569,28,30,62,55,4
0.00020965018556139063,0.00039863402638078317,0.02631413370066916,0.03971798729764673,32,24,61,54,4
0.00020972670136001667,0.0004058473661114379,0.025128135824516448,0.040394582228790825,30,22,61,57,4
0.000179220857872867,0.00045673391477634253,0.023014670126426214,0.04119014443226497,34,20,62,49,4
0.00021417089610113122,0.00042796030374140195,0.026406000346496657,0.04284162515112288,27,20,58,52,4
0.00019487627566230217,0.00041440939497062714,0.024746323293131582,0.043467130055056855,26,20,57,47,4
0.00021820161312794472,0.0004112898209863475,0.0275348023771742,0.041863466577659894,30,18,61,50,4
0.0002060951263477911,0.0004004234415547599,0.026691616362627544,0.040559762855905124,24,22,60,55,4
0.0001993562561503546,0.00034078578810888417,0.023838424361125408,0.03535558210194759,22,20,63,60,4
0.00022927479462457254,0.00028078000342981866,0.024892996355152856,0.03202474721334877,20,20,62,66,4
0.00018799236416266812,0.000293859812069545,0.022848759458580146,0.03363267115285315,28,22,61,61,4
0.00017501112389566606,0.0003366396226186334,0.02105346488872473,0.03727404242278333,28,16,63,63,4
0.000181731477658667,0.0003926994983088974,0.02289208168495922,0.039681147871115166,28,16,64,60,4
0.000183318152854316,0.0003866288443626724,0.02359332805112128,0.04050399976680759,30,18,57,58,4
0.00020195461780872804,0.00041436541788982364,0.023884589654281575,0.04197682881076366,25,20,64,57,4
0.00021046679544470956,0.00038848007975883346,0.0252811270198343,0.03548902542979185,26,16,58,66,4
0.0002148191959591775,0.00035869215117675593,0.024512206865190674,0.033843927476523865,25,16,61,67,4
0.00021353416953102548,0.00039366298883692307,0.024049707253692813,0.03959301912868881,22,22,62,66,4
0.00019462800838016152,0.0003789517957060541,0.023731891705564834,0.0366866893385971,28,22,62,61,4
0.00018383955498448782,0.00035265625180355193,0.023445220280554332,0.04121389326486573,32,22,67,64,4
0.00018488624310323597,0.00040052582365168005,0.023638994372889466,0.044046636970166815,37,28,66,62,4
0.0006726612181043088,0.000897093248141275,0.04399171787828386,0.06780902478422987,6,8,72,62,4
0.0015217912111085217,0.0016073991518048322,0.08539959996505159,0.1034219069090131,6,6,73,57,4
0.001544466186413385,0.0015966796924515247,0.08409879057051274,0.09700458157656495,6,6,70,62,4
0.0011287632974715709,0.0010825744700484392,0.059470100667762024,0.06539022602391378,4,6,54,63,4
0.0010416793578099902,0.0010019074947633672,0.054460984597689534,0.06139902357257826,3,5,61,67,4
0.00013275948342988305,0.0002443732335167737,0.01028726697432713,0.02634045681441372,16,22,46,66,4
0.00012785617447734013,0.0003054355334590584,0.00993786007351209,0.025600490198663117,16,17,46,61,4
0.0001260383048043339,0.00028182446830444185,0.010645546591348178,0.027739169040782812,16,20,48,60,4
0.0001320792612806822,0.0002960727446434302,0.010320621682767971,0.030119913889299025,16,22,47,67,4
0.00015671160361800424,0.0003979921974213868,0.012087761391421174,0.041378624201323676,18,24,51,61,4
0.0001643263314713927,0.0004317607086872802,0.014338785049068076,0.043675152691904834,16,24,56,59,4
0.00016735458942412337,0.00042810852608907103,0.014323018293439961,0.046017368577668125,12,20,50,62,4
0.00016466597214782725,0.0004020069767711587,0.014399050441025877,0.04209201103151571,20,22,56,63,4
0.00016021965557588182,0.00034841038850806833,0.013055840960701006,0.03268415420119625,18,22,55,61,4
0.00014710278255119063,0.00033733760253669003,0.012222398623724118,0.030168062192518545,24,22,52,60,4
0.00013998567471456533,0.0003060761634765757,0.01161836641949129,0.029335832327898412,18,24,49,68,4
0.0001473977932235959,0.0003058608766801297,0.01161251462406727,0.03096376818499964,18,26,42,59,4
0.0001439371684515527,0.0002632289023471705,0.0116013167181896,0.029962921839938417,20,28,46,60,4
0.00014413844048309283,0.0002764547290039472,0.01109032818226637,0.0302532616775298,20,20,38,58,4
0.00014293014821257908,0.00025104543747011166,0.011290978950869496,0.029430610627151126,18,20,50,56,4
0.0001390096595281005,0.00024574097693734915,0.011291549348859117,0.029078625599029545,20,28,50,59,4
0.0008387233440315392,0.0025340400387084323,0.12349917240667053,0.28895694004491906,36,26,78,61,0
0.0007530591311870388,0.0023782835763480007,0.12010339842167664,0.29063474844029535,32,30,77,55,0
0.0007726893419094118,0.0028372282060857364,0.12467389553036863,0.3280970738404891,34,30,80,55,0
0.0007028774548827063,0.0029520721026040876,0.10843077168138131,0.33725545517675215,30,30,81,46,0
0.0007468996778900456,0.002736560247958532,0.11368978241451477,0.3340748484283205,40,24,78,54,0
0.0007635011268408292,0.0030068424169228287,0.1202372813253761,0.34744977214807876,40,26,77,53,0
0.0007456056593063841,0.002463890870593072,0.12576451362594576,0.28944300555683855,34,22,76,60,0
0.0007405302924377902,0.002442498099142566,0.12781597301399525,0.29519124467730556,36,22,77,60,0
0.0007664802773003111,0.002577722298511862,0.13504142550547454,0.29627648754436503,34,26,78,62,0
0.0009304020160424055,0.002912936916375948,0.14040740623625173,0.3232171610774372,32,20,80,64,0
0.0009126558760500897,0.003669765130147176,0.14323441817452845,0.42276700021959873,32,26,79,58,0
0.0010276766937802632,0.004150572466178692,0.15114179717500412,0.4867021026263286,36,24,73,57,0
0.0007786555655419099,0.004802543075287853,0.13356655156137873,0.5459716952435215,36,24,79,58,0
0.0008107616958068731,0.0053410840381469486,0.133075466366554,0.5781502340208048,36,22,78,54,0
0.0008282340949321995,0.005063884692292384,0.127186312774961,0.5585305104405567,32,22,79,51,0
0.0007133503118009738,0.004768352145016742,0.12579902625339445,0.5581722305887956,32,24,82,53,0
0.000831185597087116,0.004603817798232723,0.12169342160596058,0.5053412102037634,26,24,75,51,0
0.0008093506218594844,0.00435049707978423,0.1147322801424398,0.47497258212930404,30,24,78,54,0
0.000723839768757887,0.004065926356076593,0.10391717215826198,0.4644270913838065,34,24,81,57,0
0.0007127616121136404,0.004359827099143377,0.10802144776802655,0.44865904869639306,40,26,79,57,0
0.000617630554339329,0.004006836080930564,0.1134079349630232,0.4625126859596427,48,26,83,53,0
0.0006661074130715565,0.0035774995482830436,0.12537092362832808,0.4600369071055814,40,30,79,58,0
0.000684621126695583,0.00348663098582184,0.12912953590788526,0.44567757651873763,40,30,81,53,0
0.0006943848873015235,0.0031914312289794368,0.12391808656498275,0.39133620526016805,38,28,80,57,0
0.0006482266029519613,0.0030922542929156154,0.10891324473106753,0.3707963630273071,30,22,76,63,0
0.0006874119217196112,0.0029450515534889836,0.10187117754056525,0.3530204742403711,24,20,70,61,0
0.0006461410613980176,0.002948173341144607,0.101631855893535,0.3188560615161831,34,22,68,64,0
0.0006379717227731644,0.002811685758655741,0.10508837299055293,0.32198361151284877,34,28,69,60,0
0.0006597288212043098,0.002697582471537046,0.10848812963463744,0.29097051013547603,36,24,65,60,0
0.0006566078382446235,0.0030528211940259765,0.12321776387526898,0.32320944936195645,42,24,73,61,0
0.0006242935093438785,0.002752696912758961,0.12295468271319981,0.3101892302806038,40,28,73,58,0
0.0006119264407983511,0.0025465970854776725,0.11447771328939597,0.3015726436986815,46,28,75,57,0
0.0006093557201423711,0.0024711461564191333,0.11638920551344516,0.310416846024002,48,28,83,60,0
0.0005981108493230956,0.0025758479288686964,0.10585364461676171,0.3080492389994455,42,28,80,60,0
0.0005934237961133674,0.0028307194779946987,0.09768037387072077,0.32733825232555386,38,20,71,56,0
0.0005950465673354601,0.002890215184807532,0.09936797089732671,0.3247217307488948,40,24,68,58,0
0.0006323830328288911,0.00269833868619048,0.09570898506601969,0.32717393864470096,38,20,63,59,0
0.0006141365111839679,0.0024737126905853145,0.09746975764264042,0.2955632787357965,38,24,63,58,0
0.0006095448064500876,0.002368340918977875,0.10130187325289201,0.30148185243794734,38,28,69,51,0
0.0006507086995054506,0.002548463800637825,0.10059695336141526,0.3164909722060433,36,24,61,56,0
0.0006162426120933332,0.002737105004159553,0.09955033351646568,0.3372991128568866,32,24,66,56,0
0.000582430088878836,0.002762523865427394,0.08763730821498739,0.34150209983861557,30,24,64,58,0
0.0005410653670302241,0.002545848158392525,0.08947216574954935,0.3207947673538478,32,28,70,54,0
0.000547377279501961,0.0025001952844780277,0.0946884841281721,0.31215949664195425,36,30,77,50,0
0.00046398681210483244,0.0023575629510244043,0.08485720783465575,0.2979112044053123,36,26,80,54,0
0.00048758100519933636,0.002552256447830886,0.08819231114195289,0.2998296824682681,32,26,84,59,0
0.0005028607707645578,0.0030023272771787456,0.0919887347018228,0.3143257383963545,36,28,84,56,0
0.0005272362361946394,0.0027647488341884796,0.08695811127692103,0.3000440059538398,32,26,82,54,0
0.0005709686906779059,0.0029275172318450836,0.09285311503500016,0.2902718509008229,36,22,77,49,0
0.003350471643994835,0.001798334393920933,0.3313508197649563,0.2528955210649105,26,28,59,82,1
0.0028807383462833435,0.0017740217871633779,0.3014069222184721,0.25904080792791656,30,32,61,81,1
0.0024121864120654536,0.0016107834156354767,0.2692610092308314,0.24717042982992504,26,32,66,74,1
0.0026097568454155782,0.0015737734809667492,0.28775893503440775,0.2525802157834224,22,30,64,73,1
0.002500835950792634,0.0015626947241896135,0.2756043142118518,0.2488150260033847,24,36,70,73,1
0.003069491123897472,0.0015704255935389368,0.287280944165591,0.25300588624709713,20,38,67,72,1
0.002976488663901163,0.0018278420827849493,0.28726003790902116,0.27860988982808843,18,34,68,72,1
0.003170630682963176,0.0018261120280146145,0.2913368014376612,0.28246333557428416,18,32,63,75,1
0.0034451838765566577,0.0020290568235874985,0.31970703218642005,0.30010383731556073,20,30,62,72,1
0.0038536041553061296,0.002120025517543382,0.33456204453371224,0.3395152364516328,22,30,61,79,1
0.004196823154268986,0.0018524580753055229,0.3516286032481808,0.3165627678690997,18,38,54,85,1
0.00423205821867258,0.002086832935428365,0.3936538036094345,0.3424685490138489,18,34,56,87,1
0.0039803315217553335,0.002055169953868626,0.39761605058187827,0.34001699723039547,22,28,58,82,1
0.004875278309373638,0.002017822641783882,0.4300616443365459,0.3133015735769595,18,24,57,85,1
0.004621272484497139,0.0020975414282439642,0.43590909883046414,0.34147204201620235,20,30,55,84,1
0.0037402378813592846,0.0018558880027204413,0.363361947411223,0.3156467920682705,18,30,63,81,1
0.003943766354232345,0.0015761862531226936,0.3555097263125417,0.2978042666573255,20,34,56,86,1
0.0029919136591345687,0.0015870684756505665,0.3065490171869939,0.29332515174274887,26,34,65,87,1
0.0028018338682762782,0.0016182878441510177,0.29382620957636585,0.27868931650785955,26,34,69,84,1
0.0029824171585791813,0.001618938884755475,0.30850638813792153,0.2782043792771051,22,36,62,85,1
0.0032057428553615673,0.001741277694322392,0.307162372493567,0.28897630238120126,28,36,50,80,1
0.0033346337931921804,0.0019028103061248742,0.3192115554655427,0.30718965783697333,22,28,45,74,1
0.0030889902697856155,0.0019296924215595644,0.31204755358336983,0.2873887249835767,24,30,54,75,1
0.00277445576602918,0.0018661832582371077,0.29260602066546226,0.28645566483389573,24,32,60,72,1
0.0028282485201751033,0.001868758788223752,0.2849110937462858,0.29012527485538536,22,32,64,76,1
0.0028794601636023603,0.0018492760885390927,0.2583896344967089,0.2743521196531237,20,32,59,76,1
0.0029234258884264135,0.001919809481287505,0.24380215912958805,0.2813713252668295,20,30,68,76,1
0.003275449131693445,0.001805423920068305,0.26942368686108226,0.27357151261782386,20,20,57,83,1
0.0032063586602213787,0.0017354564087495921,0.2999033545808668,0.2587552305412803,22,20,57,81,1
0.0033934680782517187,0.0017674335488781483,0.325093667776055,0.2578949349929445,24,22,56,79,1
0.0031292332636924398,0.0017714438790085887,0.3163532895355366,0.23908653531599464,24,20,59,78,1
0.002951861468916774,0.00172115181969222,0.31716752049908525,0.24440480396805545,22,28,60,72,1
0.00321762826885338,0.00163197133253128,0.3071095034690041,0.2218502907207868,22,32,61,77,1
0.003042673905019856,0.001551314100421698,0.3021083853664592,0.2088914653430876,16,32,55,72,1
0.003280113104085079,0.0014392565476187313,0.3231280350897827,0.20051781012631523,22,32,54,79,1
0.002951368702603407,0.0014422899949156417,0.29652485391177685,0.21100732172436185,22,30,55,74,1
0.0026986400472497935,0.0015386594809504203,0.2970459312657914,0.21676689789186224,32,30,54,70,1
0.002935583228547371,0.0014870170569218006,0.29439976573481,0.22415941062980038,22,32,65,73,1
0.0030073752749436604,0.0014438930478480267,0.29055666055811835,0.22942906538054292,22,34,62,72,1
0.0031000496630540575,0.0014130134375332252,0.29716968180562,0.21478730888413802,22,38,57,76,1
0.002898069320101993,0.0015388973037272612,0.28250695300196205,0.231855565533275,20,36,58,78,1
0.002823931515370453,0.001541175248076488,0.27959436999981996,0.230909599294626,20,36,51,78,1
0.002719108074630916,0.001561719476829721,0.26812268394064975,0.22900294293332335,20,36,52,74,1
0.0024252364759997473,0.0015117991539993533,0.2562583459935873,0.21629435699033484,26,28,56,73,1
0.002901005184440441,0.0014843951669715394,0.2692987486156438,0.22810616880439907,22,26,56,77,1
0.002797668080325118,0.0015173735222580981,0.2553923185762489,0.21786285017774967,20,24,59,71,1
0.0030007550446626173,0.0017399457456167703,0.25962968726864105,0.24948760698446332,20,28,68,70,1
0.0031861418724872864,0.0018346648865480136,0.2793952966459898,0.2653212239667923,16,28,60,65,1
0.0029585609962099633,0.00175451627493501,0.29080389828194375,0.2566590723503308,18,30,63,68,1
0.0017089785173779615,0.0003674961406955608,0.2134452133167373,0.05801346257418932,20,36,62,82,2
0.0015002711058206802,0.0003958282970747723,0.22636000199450068,0.06305247189270381,18,24,64,89,2
0.0015322769598566383,0.0004110108417020491,0.2356757034853909,0.06645647824632323,28,30,66,80,2
0.0015421052454151454,0.0003690176633581579,0.23666272238420852,0.06241272299039906,26,40,65,87,2
0.0016290541021890149,0.00039176558894566424,0.23753912875387637,0.06380572304428267,28,32,62,84,2
0.0015140312176337338,0.0003751233247970169,0.2292039286773075,0.059198374083460764,30,32,60,89,2
0.0014574174524214587,0.000356747235827921,0.2112067892962807,0.05651762237832642,32,36,64,89,2
0.0014925426201436967,0.0004220037089658101,0.2113172388191053,0.057631668209448664,36,38,60,82,2
0.0013051237301447516,0.0003870216634625205,0.19094000111651485,0.05400288473790987,34,38,69,80,2
0.0018931769451082101,0.0012668715962345684,0.2623306576134261,0.10400098284080588,24,12,72,71,2
0.00228220391542904,0.0013824255135609304,0.32884809252599134,0.12643610794697194,26,18,69,67,2
0.0025409339669672797,0.0013830369193285547,0.3596867337801354,0.14037742413927362,28,18,70,75,2
0.002672191558150431,0.0007385797557661631,0.3828090965490841,0.1293711396466809,30,42,63,77,2
0.0024103992653440416,0.0007072168070047413,0.3517819244769587,0.12184147379036124,30,34,65,81,2
0.0024199349266951155,0.0006842947780574251,0.3173505537117449,0.11312620571502209,28,40,64,81,2
0.002155126067555623,0.000634263764964054,0.3026276832561582,0.1071202312215183,32,40,64,82,2
0.002359926036192826,0.0005798541984276955,0.30855302281713304,0.09645376376633008,34,32,66,80,2
0.002009620056700676,0.000530948016959534,0.28466121073942885,0.09273137472724904,30,36,75,82,2
0.0018941285975739046,0.00045700090649826696,0.2682233826441579,0.08016564187655098,28,32,69,83,2
0.0018930092973691523,0.0004208346467422459,0.2651446053331487,0.07601524727962305,28,34,70,86,2
0.0015907866237049068,0.0003908893512401612,0.23649385842560036,0.0737849867793287,32,38,68,87,2
0.001625870979731617,0.0003820142401865921,0.2432080557104792,0.0680790819322455,38,36,62,84,2
0.0015467448680932933,0.00039113485267424015,0.23328604141081732,0.06662212145578834,34,32,63,81,2
0.00135853237075225,0.000356497112055255,0.204251196849973,0.06077947825996389,34,30,63,83,2
0.0013848301887565133,0.00036680829966936857,0.20085810462653655,0.05856521610887784,32,32,63,83,2
0.0013449495002679206,0.0003697313945891878,0.1747492146115204,0.05508729941910305,26,36,62,81,2
0.0012543418815511595,0.0004049790095262167,0.17173435822332064,0.05854560814257698,26,42,68,71,2
0.0013304833442002876,0.0003953365271025689,0.1779991659033597,0.05855294457861754,26,36,65,73,2
0.0013070877557082355,0.00043049887646760674,0.18675683410007413,0.05956675324878283,30,36,65,76,2
0.0011865311999563902,0.0003929650937162835,0.17410152749718313,0.05609321380841664,26,32,61,78,2
0.0012181426393967694,0.00035080946531802515,0.17683704745557016,0.04931828395100798,22,35,57,85,2
0.0011163911714745206,0.0003662695363022191,0.1661741338949337,0.04845245993893042,26,28,69,80,2
0.0009604510762798754,0.0003657101917629943,0.15058744822334535,0.04844016723000355,26,27,68,77,2
0.0011787082298060408,0.000376469771571411,0.17006743050262083,0.04907941055613814,24,26,67,76,2
0.0010045060364713878,0.00038228464487678916,0.1452551508033778,0.04886552887315372,30,35,71,76,2
0.0009395101332443658,0.0003412584091389485,0.13833114669589194,0.049839911141785306,26,32,68,70,2
0.0009668114311497145,0.0003496329824533136,0.12701015304009225,0.04786888781822315,26,36,61,69,2
0.0008084235452034667,0.00036216079241797324,0.10253688191284203,0.048160207652182416,26,32,69,64,2
0.0009420029468073348,0.0003619091298026775,0.11473364153572642,0.04970589479987131,26,34,74,72,2
0.0009507234075328588,0.00034926853573506803,0.1184652454227884,0.04735786017686585,20,36,70,77,2
0.0008920945218951336,0.00035857215493085784,0.12457560575960923,0.04664077518417579,20,25,71,75,2
0.0008649823813279014,0.00033622294147657667,0.12677870368829244,0.047577794872147694,22,34,68,74,2
0.0008589482199776405,0.0003693967838128299,0.13318415633628106,0.04653390980928931,30,24,66,72,2
0.0008946909777226871,0.0004627533567109624,0.1297415070333705,0.051346069855989177,24,20,65,69,2
0.0009870443043530736,0.00039731471398477735,0.13525976637404602,0.048805545609245805,30,26,68,69,2
0.001057469897557017,0.00038151461164824524,0.1371170708503409,0.04761516154715772,30,26,61,70,2
0.001044620470820277,0.00027177504595258904,0.13149629565595353,0.04432694535241303,32,40,63,69,2
0.0009125481296358179,0.0002676317802650344,0.126867824188208,0.04159693578689141,30,36,66,72,2
0.0008539773543934043,0.00027853227840751954,0.12029423242302731,0.04169133655266884,26,40,72,74,2
0.000501286455531474,0.004447591103771809,0.06054256845853059,0.5829545095750398,34,24,73,68,3
0.0005200482808658712,0.005153394093577226,0.06407157509141119,0.5915835005506912,26,22,72,61,3
0.0004710929059101034,0.004563692297212325,0.0563091851876956,0.575771938751745,30,26,76,68,3
0.0005140882435534847,0.004713359751529915,0.0626572091060118,0.6364536280663341,28,26,77,66,3
0.0005356685611331569,0.005076850699934087,0.06378186645728351,0.682470133838502,24,26,76,72,3
0.0005167960088739462,0.00477523713889853,0.0627222821951355,0.6049451566190839,24,22,76,65,3
0.0005488901000512857,0.004112205357195325,0.06793654632767582,0.5789346710904162,24,24,66,68,3
0.0005338979783433773,0.004608297296225208,0.06621535076037173,0.5630589393013039,22,24,70,64,3
0.0005177933955881161,0.0043082034725841324,0.06536907957479972,0.5562997705348162,30,34,67,63,3
0.0006705826414547463,0.004557986712102145,0.06724417661617384,0.6065656635241022,24,34,74,66,3
0.0006091164237905041,0.004361564489059694,0.06796378427844071,0.576328619537443,26,34,69,67,3
0.0005883650382520308,0.0040042261858705295,0.06259468535312628,0.5826198640499005,22,38,68,71,3
0.00045393363266716676,0.003915642685428773,0.05586847731992761,0.5890327703415814,34,36,73,69,3
0.0004736976298113998,0.004518825686053523,0.05833782382058376,0.6296529016063898,30,40,73,72,3
0.00046305393152243753,0.004244410344515259,0.057854571134032896,0.6519144873749557,30,42,74,74,3
0.00046638425466908733,0.0043796719779324025,0.06026128142841228,0.6680107234750317,26,36,79,73,3
0.00046018450061339046,0.004419758268599025,0.0601053534543417,0.6624859336813311,28,34,80,71,3
0.00046780011920018974,0.004256178132916157,0.06625224736806126,0.6958845039051113,32,34,74,70,3
0.0004958629187364575,0.004832217610918368,0.06594389717571839,0.7215156206058221,32,34,69,64,3
0.0005014133980614598,0.004549159236360732,0.06257291226722125,0.6812767294794133,32,38,68,66,3
0.0004932759955535973,0.004606337573768972,0.05895631053913739,0.6914928849615539,34,32,73,62,3
0.0004694454536208469,0.00443505920661633,0.057510102036808,0.6569688439803723,26,34,60,64,3
0.00048219580990700283,0.004270310180775127,0.05764156488493796,0.6367738100861765,32,40,66,72,3
0.0004640937983963634,0.0044760255332454615,0.06402961950432808,0.6973654245769256,26,38,67,71,3
0.00047514687921176217,0.004458232974416394,0.06566408730809624,0.6903116968315428,28,38,70,76,3
0.0004820724113675886,0.004461148349930793,0.06474494543898211,0.6857157457876494,26,38,72,70,3
0.0005051662490263586,0.004558583983605457,0.06488713369128371,0.6682312872888482,34,34,69,68,3
0.000486549125020363,0.004157474013612924,0.05871848373326788,0.5850410085765347,26,28,69,70,3
0.0004891645128255193,0.004025000245528184,0.05735711733781499,0.5871021395252549,28,32,69,68,3
0.0004946254915631607,0.00379971529413281,0.055814756280579324,0.5709127780581468,22,36,69,69,3
0.0005046326412733908,0.003967222464825528,0.0557807492576627,0.5828825573461851,22,38,64,68,3
0.0004930444848771017,0.003936855888755657,0.05755299939638938,0.5936719752082655,24,34,70,68,3
0.000499910771428219,0.004313495739621184,0.05834264831557015,0.6110167552285959,26,32,65,69,3
0.0005023375153571475,0.004481224549625792,0.057539972269585016,0.6022990440478203,22,34,66,64,3
0.000510467213846015,0.004571506608109648,0.06013026062609153,0.612825422230992,24,32,70,63,3
0.0005273655699884245,0.005326281287284551,0.06208020916238958,0.6627268891654865,22,28,65,62,3
0.0005504566264559253,0.004972106546689236,0.0659092888005885,0.6532587292524835,22,26,63,68,3
0.0005313066208826963,0.004956052753439031,0.06661640550435116,0.697694097047195,24,32,55,61,3
0.0004991641288658183,0.005024813332610035,0.06581984557012593,0.7245142307046893,30,32,56,64,3
0.0005158010959259742,0.00432143271384053,0.06663226894184215,0.6739874557241599,32,34,66,70,3
0.0005308094342092939,0.004900849651576971,0.06920115735595006,0.6921746318052913,30,30,67,71,3
0.0005296079936983154,0.0044172660100419555,0.06671151119887375,0.6456096381123145,24,28,70,71,3
0.0005343948521935602,0.004542633799408262,0.06584691212263703,0.5849024059398702,28,28,70,67,3
0.0005246925630430999,0.004836462211368933,0.06062852942533589,0.6617506888512907,24,20,67,67,3
0.0005136544612375903,0.0042940511665101235,0.05387870019766974,0.5987077034595446,22,24,69,69,3
0.000579876355952064,0.004235584267510385,0.05450326180865929,0.5839821228527309,20,26,69,71,3
0.000573364346672533,0.004082679466126089,0.05441675276652124,0.5945242324607618,26,28,65,80,3
0.0005423817016790003,0.004198430526572916,0.05615969850107997,0.5760945711853646,28,28,66,71,3
0.0005273044431570967,0.003896457593453429,0.05321005665440613,0.5766178567284406,30,28,62,76,3
0.00022878907119928127,0.0003564748208462837,0.025548318476981743,0.04156195234423467,24,32,62,65,4
0.00020913192419837821,0.00036246770792525184,0.025013784481603137,0.04320984456995612,33,28,56,59,4
0.00024709009406215525,0.00033712167624469383,0.028567049438086006,0.04123182470123463,26,28,56,60,4
0.00028586456725544253,0.00039248520244909236,0.031194150967940686,0.04322663574888602,25,24,53,63,4
0.0002551722245075218,0.00039779369741305376,0.028518871497003436,0.04070769587158037,20,24,61,65,4
0.00025275000856501815,0.0003752844517980799,0.029658972105966266,0.03946971257866534,26,20,59,66,4
0.0002347728439874744,0.0004245389476316992,0.02652668133871681,0.04326775884588164,20,18,60,62,4
0.00020388242156799428,0.0003872178595042222,0.02556635856395889,0.044591242852237555,23,24,67,56,4
0.00021446450926044898,0.0003868709001416438,0.026275568756936832,0.04380502113539014,24,26,65,63,4
0.00023230235184963768,0.0004148069475022559,0.025077547747962375,0.0476012553099054,26,28,57,57,4
0.00021078224389883723,0.00040212428085164816,0.02424634484481365,0.04451676365335356,24,28,53,60,4
0.00020509315448287123,0.0003593635621068038,0.02263120648118848,0.04407943348477324,27,22,56,66,4
0.00020648070537483608,0.0003590158054063856,0.0225771886923995,0.042545049472752706,26,18,58,62,4
0.00020899307447011688,0.00046144143476034615,0.02062966413651002,0.042132657195904956,22,14,57,61,4
0.0002044068700663702,0.00043218815717794483,0.021552064874134108,0.03779592638412555,22,14,59,58,4
0.00018707370791928944,0.00041443686177090986,0.020210055396434584,0.03497779484337731,27,16,58,53,4
0.0001980178424606239,0.0003890455998026857,0.02170345901574861,0.035113715650384875,28,16,64,53,4
0.00021800833314932023,0.0003867186053262969,0.022273258609693102,0.0334507250947746,24,24,57,53,4
0.0002640532716249553,0.0007757028392093748,0.025240935228634524,0.05918300841216117,16,14,64,68,4
0.00030905992400037186,0.0012130457952202669,0.030294954018933933,0.08082322388027514,21,8,63,51,4
0.0003189850503165603,0.0012271140889865645,0.027513362881822646,0.08040976124332476,16,10,57,52,4
0.0002451977636448101,0.0009292745771869001,0.021369615624041723,0.06552939226315066,20,10,55,58,4
0.00022072001646305974,0.0007737768770487853,0.019796888801141953,0.053086087107994714,20,9,57,61,4
0.00016517994662388298,0.000351871606406134,0.014095727896508361,0.027495162934120316,22,12,51,59,4
0.0001781707270886084,0.000367178002743322,0.014146848430433432,0.029555689145185225,22,13,48,55,4
0.00017388772543548272,0.00027412526454574854,0.012899358883607026,0.02527039196824089,18,20,52,52,4
0.0001747037866168178,0.0003209059518534133,0.013260147667491938,0.030353949885383914,18,22,52,50,4
0.0001789847082574378,0.0003148603858288184,0.013673169092865398,0.029989112336397766,20,30,52,49,4
0.00015693262413545025,0.0003241230054601631,0.012948880151107785,0.02784635825290513,20,26,52,45,4
0.00016741337856946217,0.00036812340983462374,0.01382068653178506,0.028534384575018806,18,20,55,50,4
0.0001596516842914479,0.0003492893761986854,0.013842254875062245,0.023932020951962122,18,16,52,48,4
0.000173391716970414,0.00034452300902922833,0.014289533870485184,0.024742506768140094,19,14,44,55,4
0.00016864604089853057,0.00030718491984630514,0.013756508180096326,0.02449504010311917,18,19,44,55,4
0.00018383845421662904,0.00026465970527927225,0.014774481152573252,0.025289209966009515,16,20,48,59,4
0.00017594149833475144,0.000261384079297366,0.014293616208478771,0.02632201234687413,20,21,44,61,4
0.00016564513016822328,0.00026283681184903306,0.015068382987418713,0.027273978626924874,22,24,45,61,4
0.00017191553064019655,0.0002684067428742536,0.015350547465857806,0.02577082608687329,22,23,56,65,4
0.00016366554071647687,0.0002960610557484321,0.015892710319655577,0.031227536323070213,21,18,52,67,4
0.00017327909693875358,0.00032994448551100524,0.015642772702883362,0.03171711681017786,22,19,47,67,4
0.0001655509449201221,0.0003053246529396392,0.014564828847830912,0.030209439642022537,23,16,52,72,4
0.00017178997811616358,0.0003435907823187884,0.014520295084043408,0.03198117621962381,22,18,46,64,4
0.00018941128008463626,0.00029433549910248325,0.014952296227539153,0.02743493160291361,25,16,52,58,4
0.00018018791567259997,0.00029862797920468184,0.014562268475752331,0.028124561976178703,22,20,50,60,4
0.0001998293408146312,0.0002649305122732245,0.01559020387671947,0.027554864147196302,22,14,54,65,4
0.00019545473527358213,0.0003334208704935147,0.01358576453012135,0.028195850144411998,22,22,55,60,4
0.0001720803839432532,0.00030896091136765414,0.013316934316497596,0.024867861131452614,24,10,58,63,4
0.00016985002333787323,0.0002957955562121683,0.012817372522172939,0.024908578296483273,18,22,46,59,4
0.0001582690919965942,0.0002674281719801774,0.012553117505358343,0.023144294928445695,22,18,44,59,4
0.00018085625289591747,0.00025988240205782916,0.014642660974856352,0.02261062266724286,18,18,42,62,4
0.0008302205192750946,0.003978667296058182,0.13105537219005878,0.45433584991758635,38,28,75,49,0
0.000864196386961327,0.003829859207427428,0.1330904862917146,0.4509619282081035,28,28,74,58,0
0.0008064857252691757,0.004174156187816127,0.12956067712949837,0.46271571778970766,34,24,82,51,0
0.0007719894420210514,0.003953382737318792,0.1263058091675605,0.4638627202525402,32,30,84,55,0
0.000871238478391716,0.003768034907717668,0.1366137848749,0.4651789181223733,34,24,83,57,0
0.000850947149409484,0.0034454242235837764,0.13541735600062213,0.40573144260538646,40,26,85,57,0
0.0008438508507160202,0.0029783130256384755,0.13658452193268086,0.33677888940348216,32,30,76,64,0
0.0008727209007432314,0.0026988335093546117,0.13999460618921952,0.31126944878818286,36,24,73,62,0
0.0007778769198526807,0.0025515277451699813,0.1324407517804453,0.2863709363673558,38,20,70,63,0
0.0007976805688585545,0.0026741886031845224,0.12383574113099292,0.2870895783344655,36,22,72,74,0
0.0007665926512328472,0.0030098970724835843,0.12346762998255503,0.3109690184692658,46,26,72,66,0
0.000758722480439583,0.003242569878256546,0.11318554855536621,0.3406617367156568,40,26,75,56,0
0.0007001605105706657,0.0034031173403631064,0.10981802861658176,0.346243488873971,38,24,75,56,0
0.0006976340285755186,0.0031732982727604416,0.1139187213797087,0.327289915815349,38,20,78,54,0
0.0007173419789231712,0.0032889595194080714,0.11460902794346081,0.33132528453101007,38,20,82,52,0
0.00077354547419608,0.0025599715069268654,0.12261647315749662,0.2925025580945457,36,22,80,57,0
0.0007362284042802254,0.0025400306523612696,0.1121023406940444,0.292003927888782,40,26,81,59,0
0.000791521930024119,0.0027545885122632324,0.11377365433043718,0.29592412392549206,32,26,80,61,0
0.0007718137211328796,0.0027016999918896252,0.11936039549807027,0.3089597492174731,32,24,73,62,0
0.000777092240329421,0.002721454539063796,0.12974624310289193,0.3081966259755422,36,22,68,61,0
0.0007908655161953242,0.002832102737300975,0.13554826896601088,0.31295148513941184,34,16,72,58,0
0.000822887958275663,0.0029531783685516964,0.13675561122060198,0.32547810829743046,38,26,72,54,0
0.0008274318963996656,0.0025824106865767623,0.1300287823459804,0.30244239659085514,28,30,67,56,0
0.0008379284367937067,0.002470331289881905,0.12713557628902508,0.2978319504623087,26,24,78,67,0
0.004078769081218896,0.0022606630653227893,0.3522361240579614,0.3110661741329191,26,28,52,76,1
0.003045809678474927,0.002281323619850112,0.2903122480769695,0.3348374163493177,18,30,58,76,1
0.00267778581361639,0.002180667057684612,0.26546953569247383,0.3140558982041649,20,26,54,72,1
0.002784263197158932,0.002265922017602756,0.2894225752747958,0.32526319433636175,24,22,45,75,1
0.002559912104852688,0.002100735418926585,0.283471865421609,0.31374942439800807,22,26,51,78,1
0.002744537627792541,0.0020968583383823222,0.3019914598826094,0.3036147015978197,22,28,53,70,1
0.0028965727618993032,0.0020397169433119854,0.3182651087494253,0.30922049054814793,24,32,62,70,1
0.002609267558638113,0.001986755205209428,0.30123149057032983,0.297224932423613,24,38,59,74,1
0.002559375816970787,0.0019500893890027349,0.2989896954570592,0.29975949442582084,26,34,66,75,1
0.0027427349146509575,0.0016570239574638422,0.3008141032830361,0.26197066827779536,28,28,54,78,1
0.003092639040726774,0.001594778902176787,0.3064463752541799,0.25741207834523067,22,30,62,77,1
0.0028927505582065334,0.0014515090537131675,0.29299163640899517,0.2448736093875578,20,30,59,79,1
0.0028397358144465583,0.0015612382178078993,0.2923937946860062,0.24720136149428512,26,26,58,82,1
0.002509710200407497,0.0016924914418186498,0.2634983594704362,0.27423627017955116,22,28,67,75,1
0.0025979071186926555,0.0016243013302755555,0.2709658196094267,0.2660083562779478,22,28,61,73,1
0.002583833394454762,0.0018146671484208963,0.2830163957715987,0.3028905157574623,20,36,69,72,1
0.002726223966180718,0.0017954566443793166,0.3062378770589784,0.28483659012961793,22,28,66,80,1
0.002870581535986215,0.0018623984783409054,0.3217355730350696,0.28371472534378356,24,30,58,85,1
0.0025213024268329245,0.0019094942590843907,0.29680639012235893,0.3014989041060412,24,30,61,84,1
0.0028065795004895444,0.001905257530831297,0.3100716158929268,0.28861538086273586,24,26,59,76,1
0.0027022527409772124,0.002077519303668569,0.3045013582955885,0.3270798790954102,26,36,61,69,1
0.003064660352648393,0.001917262307867413,0.328103638897316,0.3097281144333078,24,34,59,76,1
0.0036144957588223276,0.0020528636068108726,0.354526226558898,0.30693708711168527,22,28,57,75,1
0.0035098797429868006,0.0017708177642313222,0.3512277945140972,0.28036282542247304,24,28,63,83,1
0.002706177462799949,0.0006990039766185238,0.3840287951479078,0.12153321290169722,24,40,68,75,2
0.0024809826034393836,0.0006445454383020851,0.3825145895812618,0.1184385987218491,32,40,64,75,2
0.0021991222042757105,0.000601653027229441,0.3416930730887941,0.10718030605645444,34,44,68,76,2
0.002028270566030921,0.0005792492077442385,0.3193324976410343,0.0988791461485943,34,38,65,74,2
0.001769168946615148,0.0005557741299712922,0.29217218121609234,0.09830489623143585,40,40,71,75,2
0.0017557889861664336,0.0005540473530973186,0.27734374571961384,0.0945244320028898,40,38,75,69,2
0.0016361703702775805,0.0005441169190430917,0.25743600747973805,0.08835737529729983,38,36,73,72,2
0.001699367735925737,0.0005748918151054654,0.27294534078244487,0.09214076648787725,40,42,78,73,2
0.0018041092462106642,0.0005754662018171128,0.2828056420709063,0.0871390204161776,30,30,76,74,2
0.0018328499550329073,0.0005730571093036271,0.27185344326640665,0.08574656086094533,32,32,72,76,2
0.0018853347726850039,0.0005288191213736514,0.27609004883241783,0.080782965869335,28,30,70,77,2
0.0019851816990166258,0.0005388079055538865,0.27436703191337,0.07975377038633497,38,28,66,77,2
0.001994854006655056,0.0005270167506373695,0.26780328955519983,0.08235118394642278,32,28,63,76,2
0.0018197137148766205,0.000497492023965909,0.25151243065299406,0.0761027482685075,38,26,59,81,2
0.0017630433785712533,0.0004658448087345443,0.246577855159506,0.07491444611956638,36,38,60,78,2
0.001612103748538826,0.00048530907961729915,0.22056368672344995,0.06937254907388458,30,30,65,82,2
0.0015208682504800775,0.00047050670758798916,0.23093912568520325,0.07353687106020039,32,36,68,78,2
0.0014646951505417427,0.00048084838481499733,0.2290913604200602,0.0744870369004261,34,36,71,77,2
0.0015442428875479116,0.00044954971621600126,0.24812855763557026,0.07650339921990211,34,40,60,79,2
0.0015763998818252689,0.0004571166807777352,0.25621381825183515,0.07935421233965345,32,42,63,79,2
0.0015045610558313209,0.00041781080319640605,0.2324113923563233,0.06880794658544966,32,34,69,84,2
0.0014569246673913079,0.0004429086840709817,0.22789131542348853,0.06525054428940534,30,34,67,77,2
0.0013456423694518458,0.0003882948150440945,0.20213589668412596,0.056563869656021046,30,30,76,79,2
0.001335448458249219,0.0003790260699675512,0.20088976587234098,0.05531677173315372,30,28,67,79,2
0.0004549339708695451,0.005297977818310452,0.07162844344626272,0.8026882821208434,43,34,68,64,3
0.000493873818890052,0.004949564384573402,0.0731978367967624,0.7371399771723683,36,38,69,62,3
0.0004859622165652403,0.005061508575693703,0.07080831453093286,0.7473713966963296,38,32,72,66,3
0.0005100847652264595,0.005212621775110785,0.07557421408046541,0.7193902173925127,30,28,76,59,3
0.00046380563501335583,0.004695156817650065,0.06870277560703905,0.6763967334355458,36,34,76,71,3
0.0004440336406480902,0.00463568982935833,0.06875352222431272,0.6860934949826971,44,32,78,69,3
0.00047220433539256116,0.00441317095716448,0.0704872964222874,0.6209013654108793,40,32,85,70,3
0.00044532971191077534,0.004137287661625435,0.06754311650599097,0.6545766117376675,34,32,79,73,3
0.00047173615760119213,0.0035641333460338597,0.07036796884600219,0.6113735322326489,33,34,75,80,3
0.00044775508444616467,0.00332117171582197,0.06780286183975938,0.559635698028128,28,30,74,81,3
0.0004594614544488345,0.003391933609604018,0.06635782504068284,0.5366330050867212,27,28,71,79,3
0.0004659628459155469,0.003122997812190989,0.0656140344760484,0.4986744752735438,30,32,71,79,3
0.00048227200887557324,0.003719638106807171,0.06414326180763548,0.5627486669009983,29,28,72,74,3
0.0005445496152050484,0.004473797589685724,0.07164973209114893,0.6503941390342162,34,30,72,71,3
0.0005091113383037094,0.004557180943751669,0.07265987207530426,0.6525798734345055,40,32,75,68,3
0.0004778302823872626,0.005297508928095145,0.0695964754645366,0.7021635350421231,34,28,74,66,3
0.0004846637971256372,0.005357603013401186,0.07088138365823742,0.6787171191327642,44,32,78,59,3
0.00046128709022551006,0.004767897288786172,0.06144234738090432,0.6667841523435971,32,30,76,66,3
0.00044285599237788573,0.005397758505321707,0.06098262068362863,0.6939358538130894,32,28,72,68,3
0.0005344124693364423,0.005131372431926838,0.06288643855864154,0.7644129151376741,26,30,71,76,3
0.0004658979621560804,0.004754956579979738,0.06403003585147833,0.7712545309108327,30,36,69,79,3
0.00046949377340172946,0.005024575453324695,0.0666581099635603,0.7785132971181026,36,36,76,76,3
0.0004746337530909178,0.0051038107106669475,0.06909795701579391,0.7711997005383643,38,30,72,75,3
0.0004798839055643308,0.004314174691586861,0.0651889815576909,0.6338053721444306,34,28,74,72,3
0.00013514959019308252,0.0002354994206661333,0.011144898186381404,0.028254840279440228,22,24,40,65,4
0.00013909059748347226,0.00024771799537178597,0.010887278076984908,0.027208817216356818,22,26,44,66,4
0.00014500136003040744,0.0002162488055131014,0.010865189811856416,0.024365676247372212,21,22,42,67,4
0.00014009519474188857,0.00019015684259320682,0.010475028415982133,0.023656435580187943,18,27,42,67,4
0.00014922625806535256,0.00021250243200175077,0.010478995586548263,0.023414499331976577,21,24,39,65,4
0.00014986122347019154,0.0002183754782222421,0.01077916525825155,0.023523791805133903,18,25,48,62,4
0.00013736491293795612,0.0002501379947146888,0.010538600597678523,0.024297469327205973,25,22,50,63,4
0.00014532587330801393,0.0002372726490435347,0.011115870699765926,0.023777926377127934,22,23,52,72,4
0.0001619829148712514,0.00020336650200912388,0.013676781501985192,0.023378571781030182,28,24,52,71,4
0.00019527277167996802,0.00021424324966063876,0.015271997223583852,0.024205396668968576,20,25,45,74,4
0.0006147126344102377,0.00038695506306522825,0.04125046915251808,0.03285611350920973,4,20,45,76,4
0.00065829941679474,0.0004913467487465059,0.04472749063646371,0.04156967349853735,6,18,48,62,4
0.0012164778948797776,0.0009243003208326357,0.07383549659412265,0.06511102404019006,8,10,62,61,4
0.0012170663013013282,0.0009770771084137546,0.07555348488763694,0.07203258429932377,6,14,60,57,4
0.0008164379020320135,0.0008854183662503815,0.05496483216121446,0.06921321819475663,6,18,69,63,4
0.00024482540227472547,0.0005267174694467339,0.026926775220225532,0.0572406662067225,18,20,58,62,4
0.0002457255004507945,0.0006988914940583678,0.027424867595629777,0.06473087594504436,22,20,59,55,4
0.0002715140012724881,0.000636335950731988,0.027526092075791313,0.06488904188694705,22,20,54,58,4
0.00028362762894617346,0.0006906881713966572,0.02867246580897026,0.06618748568546515,20,16,50,58,4
0.00026689705040066665,0.0006072575005019188,0.028406093359418776,0.062186402817827786,20,24,51,63,4
0.0002593526924034324,0.0004759505298157119,0.026714355760266803,0.05036061029377953,16,26,49,63,4
0.00023639507231280565,0.00045890767612616416,0.025524780246300872,0.04737962865524595,17,26,62,67,4
0.00020884938881979463,0.0003604968826681848,0.02386514797365781,0.040925682639728865,26,32,61,74,4
0.0002135538070152614,0.00035701008132064304,0.023236548600723078,0.03892036707024916,27,32,65,72,4
