f1ch1,f1ch2,f2ch1,f2ch2,f3ch1,f3ch2,f4ch1,f4ch2,Category
0.003474135217543518,0.0038661653143013826,0.4129573500116263,0.5053437973403077,36,30,54,60,0
0.004160927073221653,0.004662165382114228,0.502287883650218,0.582806549253891,30,28,56,67,0
0.004523889851073603,0.005147636711736676,0.5836268721917425,0.6542987726152865,24,26,57,68,0
0.0044687810128862596,0.0052494020627948555,0.5974261947621872,0.7019210100446107,28,30,61,63,0
0.004097183111269715,0.00550782505711346,0.5819182521419873,0.7332288004982984,30,28,67,62,0
0.004320183496726175,0.0051033593942024095,0.6045812841413549,0.7128904256109786,32,30,65,57,0
0.0037776614844227223,0.0054518829939451015,0.5523009702293823,0.7833225738816701,28,28,70,62,0
0.00411215288649447,0.005594324022257127,0.5619210104009987,0.820741997575947,28,34,68,58,0
0.0046973880783274915,0.005831224204212542,0.6093202138952476,0.8331187093630561,22,34,68,60,0
0.004438101505398802,0.005796561047731055,0.545786952985681,0.8559091009038987,22,34,60,65,0
0.005079720039207281,0.005852406413840844,0.6166814216962261,0.8472542857472559,24,34,58,65,0
0.004620195196435054,0.005833679758472069,0.5548288751594416,0.8486234021214588,22,36,65,72,0
0.003925353282503473,0.005944945625057465,0.5330110264761145,0.8412998397570886,26,36,68,71,0
0.0038173480192075847,0.006166834190767807,0.5390541311189971,0.861686412714081,24,32,69,74,0
0.00330096379699581,0.006369055631502486,0.49620879584766486,0.8390012197422808,24,30,65,75,0
0.003610695804528051,0.005926099098775107,0.5223987885313398,0.764598820101586,26,24,64,69,0
0.0033765485213859614,0.00566248609951901,0.5031690841027869,0.719769077849491,30,30,66,60,0
0.0037298428687957768,0.005548977213602591,0.513188195904259,0.724733447102399,28,22,64,65,0
0.0032908565976769786,0.005500525679983179,0.46333414754658675,0.7095183090109423,24,30,63,65,0
0.0031157349462289183,0.005328415782602352,0.41547735797135166,0.6947353302671228,26,34,62,69,0
0.0029169616833346367,0.004750542797052909,0.3935184854112405,0.6517769258094751,22,32,63,69,0
0.002588411078821468,0.004741367773748406,0.3404300422883688,0.5996327216339883,24,24,66,70,0
0.0027777825805173225,0.004742026337886914,0.37746994146106233,0.5528039287476542,26,32,67,71,0
0.002914410097682321,0.004552421491036675,0.41037211907449944,0.6135361802209958,30,28,65,70,0
0.0027664589449504645,0.005007760683215325,0.4002187662494358,0.626675721357894,26,28,69,61,0
0.0028892767719868317,0.004961053671473155,0.403210009531711,0.6296630191187063,28,30,71,64,0
0.0025574751371382726,0.004919099647258044,0.3680735467027114,0.6375839159058541,30,26,76,62,0
0.0023052593610103176,0.005415186295340633,0.3283828407043027,0.6582799061490198,26,26,78,58,0
0.0019431433713807066,0.005493896915824027,0.29561468139322566,0.6906791617507027,26,26,76,60,0
0.002124006918503152,0.005396268675320935,0.32810803460670923,0.6986264756814053,20,24,73,59,0
0.002099750319439295,0.005517217557837371,0.32020954333735047,0.7361175254769119,24,30,74,58,0
0.0025230786865753775,0.004486905095496107,0.36822746666833617,0.671091797899316,22,34,73,61,0
0.0027394634192653526,0.0052289486340550565,0.38218209088043326,0.6581916371361227,26,28,67,57,0
0.0024886424149374404,0.00576920590777118,0.34108491128477264,0.6877878457190869,30,26,73,53,0
0.002407133794218349,0.005679073337697679,0.32460257190506836,0.6670561928575227,30,30,72,54,0
0.0022850296246511494,0.005574405207642259,0.30318467708820646,0.6805774583561879,30,26,76,59,0
0.0025078111346968413,0.0050898613095363,0.31344281514451283,0.6488867954150083,26,26,80,61,0
0.0025485957808324016,0.004636812968405618,0.3372687416263491,0.6777240379236209,30,34,74,62,0
0.002574312974657505,0.004425170261331487,0.35953867484260815,0.6396170295845899,28,32,72,68,0
0.002060675699441446,0.0038096813515417416,0.2841679139331483,0.5112154531240892,22,26,62,55,0
0.00132336743258617,0.003332489487658149,0.19836333464735698,0.4283217899501745,18,20,56,46,0
0.0009645139158591022,0.002512697572052849,0.13382520298639602,0.27117001633778115,20,22,59,49,0
0.0007422906030787179,0.0029606143683356236,0.09855920873902912,0.26868299181958905,18,12,77,55,0
0.001170024364070598,0.004123887982792913,0.17138112276796827,0.36750718425962037,26,18,71,55,0
0.0018848418329969368,0.004490043592927624,0.2480914996052986,0.4727678264198467,26,22,65,68,0
0.0025464115858849427,0.004822523929227373,0.3263679884081061,0.548078815724714,28,22,66,66,0
0.002783900953102839,0.004751361817275264,0.37046611434305327,0.6117063922326854,30,34,65,72,0
0.0035524812298016743,0.005162665718611585,0.4555441053252967,0.7028504406763036,26,36,61,63,0
0.0017512736667210358,0.0027160850993840006,0.20182745785435097,0.29583844038582896,24,20,64,60,1
0.0018923332015344846,0.002964387631403274,0.2239838758416371,0.3462782958202845,32,20,62,67,1
0.0015959603947046219,0.0035684978463508426,0.21066238666630752,0.3932249595428132,30,24,70,58,1
0.0018001390048698442,0.0038000503198647156,0.2537800205553061,0.43438066156580823,32,24,68,59,1
0.00207226970759573,0.0035517717390038945,0.30712113947790565,0.4297423223521462,40,28,72,63,1
0.002239784358228654,0.003922900738084405,0.3527068112959769,0.45544408701398575,38,26,74,65,1
0.002719591358783838,0.0035951585855713867,0.4312535420291192,0.46148999144532693,38,26,70,71,1
0.0030348634142698156,0.0034795676641211654,0.4714209477537465,0.450309151681322,30,28,71,73,1
0.0034813669280971994,0.0036556869857658357,0.5045254120264302,0.46807177628360397,30,30,69,69,1
0.0038215831384101075,0.003234264752494631,0.549757495536158,0.4259286427265209,36,28,67,65,1
0.0038643759313273292,0.003594964179626692,0.5593799427946837,0.46150563045190884,34,30,68,62,1
0.004016034548438407,0.003310350342171719,0.5610676438579517,0.4507890028573411,30,28,68,60,1
0.0038887596059806956,0.003349683966959564,0.5708045135225512,0.46046555978367204,34,28,70,64,1
0.003634639564593423,0.004156082555586718,0.5354576978583726,0.5165615367909957,28,22,69,59,1
0.00367273041272791,0.003940689854427464,0.5423021997826808,0.4872343572861397,28,28,73,56,1
0.003668749557476102,0.004305003053356207,0.5501263164379101,0.5433628178187317,32,24,77,54,1
0.0035970592829692046,0.003705325227370217,0.5467047144202389,0.4746818945280971,30,24,76,52,1
0.0035653123766884814,0.0035231367057624863,0.5515552747652519,0.46046301050050126,32,22,72,55,1
0.003584650573160592,0.0033344674230686073,0.5572953900262846,0.42455813018753924,34,30,75,54,1
0.003885998978033579,0.003592861802966226,0.5361896083419647,0.4228082749165929,34,28,74,55,1
0.003854363649096593,0.0036696934900744033,0.5323323443340557,0.44707031789078705,32,26,68,58,1
0.00385152494136301,0.0038723599719821967,0.5252047468346241,0.4833382471827282,36,26,69,62,1
0.004179242299480701,0.003953002714890595,0.5347939214151947,0.5222218382197936,28,32,68,59,1
0.003865369243242203,0.0036515774709306604,0.52527342496192,0.5002168595851302,30,32,71,60,1
0.004010839631906362,0.003821765750830645,0.5456591021144404,0.4952616902148993,30,32,67,57,1
0.004287232994445151,0.0034430674487093893,0.5548670132941417,0.45982582075381095,28,38,66,59,1
0.0043731494955946484,0.003426178659459745,0.5608178758230726,0.41951851236620274,28,38,62,65,1
0.004242393012094774,0.0032119240041767966,0.5705591545059749,0.38861144827275584,30,34,63,66,1
0.003999836408465028,0.0031881820865656513,0.5351028486243086,0.37169009389428526,26,24,70,63,1
0.004531181760562352,0.0030863415439927665,0.5738226132624744,0.3861206144781876,28,28,75,67,1
0.0039110814913026724,0.0034422829369229074,0.5208947917467791,0.41909258698420776,18,28,79,55,1
0.004212978376641441,0.0035010246983123703,0.536381489389324,0.4413644128916238,20,26,71,55,1
0.004416445115710768,0.0037921976765235275,0.5720722771287484,0.4484244318918921,22,24,64,58,1
0.004305470457117279,0.0037294886665202747,0.5750148761350652,0.41828489856606377,30,26,61,51,1
0.004511390373459751,0.003500769227007531,0.5644620751837224,0.39537022001956607,30,24,65,58,1
0.004383051932337786,0.0033967670303670892,0.5620984309979398,0.3893414991720928,26,28,64,58,1
0.004465636201820394,0.0033519368527033942,0.5541080707502039,0.40234773606659846,28,30,66,67,1
0.004635261356944753,0.0034853917750367618,0.5489813086959692,0.4207825887448696,28,26,60,65,1
0.004759890564271233,0.0036319713729219536,0.5428788518880672,0.4205593567045849,22,28,57,69,1
0.0038868250370043917,0.002928956755770512,0.42972049678099467,0.34210847233256886,18,26,64,72,1
0.0028086934259041563,0.0022129142725520337,0.28702331832874267,0.24992595947637317,12,22,53,66,1
0.0018442745160022025,0.0013839738683950145,0.17238609309038957,0.16165221199383517,10,18,51,70,1
0.000588803502637418,0.0011223614026479101,0.06440724582834338,0.1077425748395729,19,18,59,60,1
0.0013367124639562889,0.0017159598755371425,0.14363486878883205,0.1697728719735096,16,16,52,57,1
0.0019317373316593794,0.002688440868236663,0.2439416304725152,0.2746401076568284,22,21,53,53,1
0.0026864148788017183,0.00332218474783098,0.35094374108353465,0.36076449394607446,26,28,58,58,1
0.003455468947828762,0.003503648005514974,0.4420174393943278,0.39821057793664416,32,28,68,63,1
0.003981378001853893,0.0036061850385576545,0.49168372116496606,0.40656941323492507,24,26,66,66,1
0.00247679718140795,0.0008003857068403839,0.2925135806513741,0.11279566870570265,16,36,52,68,2
0.0034780529708236356,0.0010270564970701853,0.4475499778901442,0.1443530944562774,24,32,50,68,2
0.004928542231512276,0.0012431858960667598,0.6016785705450758,0.17716579536339702,22,28,56,67,2
0.005819477004982446,0.0011946201225468596,0.7220970299598712,0.16937569732860705,30,28,58,72,2
0.0058803485265489204,0.0012376419875588548,0.7812431327093854,0.16299231563321517,28,30,64,71,2
0.006049481884255509,0.0013344109531319894,0.7647062887843816,0.1779728415946252,28,30,74,70,2
0.006083940197452116,0.0014329333263784333,0.8909216148692236,0.18100018799972287,32,34,72,65,2
0.006059112050734578,0.002062418397422957,0.9439715976023145,0.23806784614389936,38,26,73,61,2
0.007365485678805749,0.0021471482750500016,1.0600986749066108,0.26092557758004253,28,32,68,63,2
0.008514969129809095,0.0026942558037226145,1.2225220783081756,0.2876642905940098,30,22,65,63,2
0.00815137108610435,0.0026801768127269077,1.1416430705562268,0.2773454734730528,32,28,70,75,2
0.008666202729734826,0.002290429456778169,1.212539656162277,0.2571981271768911,32,22,70,81,2
0.007946229303748087,0.0023119400408517705,1.2145523877351223,0.2685612868761673,34,22,71,80,2
0.007682324105231184,0.0015529977830753086,1.110262695356443,0.2252908973939502,32,26,72,82,2
0.007706367938026933,0.0015720171048122537,1.161979650672454,0.23626432764289146,32,30,70,83,2
0.007836924272811043,0.0014049754674577608,1.124488639896376,0.22438160380408703,30,36,73,81,2
0.007059461211368139,0.001206816302031972,1.0862248709693998,0.2162227483537277,32,40,75,80,2
0.007731526349128828,0.0013065898994261973,1.1674348823364555,0.2263344384705552,30,38,72,81,2
0.0068466796784767935,0.0014092144721728362,1.084107616940035,0.2308230223393377,30,40,72,75,2
0.0065882887691619514,0.0013660707059350676,1.0180052137034625,0.22701486678127297,36,30,75,79,2
0.00581409089659467,0.0013601898614296038,0.9668272322385647,0.22096767419735913,30,32,77,78,2
0.005588995060577928,0.0013746813107885641,0.8616550116230249,0.21541193385935722,34,28,83,78,2
0.00484591436161581,0.0012770044999335453,0.7886343906914252,0.18345689202695126,40,32,74,88,2
0.004670676766887773,0.0011537081596998948,0.7724356071812004,0.16771995840763226,36,36,72,87,2
0.004706230837179758,0.0010232771543279822,0.7225602382006848,0.1578144137840965,32,38,71,92,2
0.005472860144629868,0.0009707388652216241,0.7806727783733168,0.15394284034385491,32,46,63,92,2
0.005292716033766874,0.0009796966153197625,0.7716010322459215,0.16696294902415898,30,48,64,90,2
0.005554775009400207,0.001063315641734822,0.7818439567860088,0.19892636544279343,26,46,65,89,2
0.005458551052140337,0.0011294933802072572,0.796089983310785,0.21180118821571792,28,46,65,88,2
0.004866995104862957,0.0012448823503534467,0.6888751994467375,0.21376187924681633,26,46,71,82,2
0.005176492945768802,0.0012149120318709725,0.7070105184913877,0.202018067625208,28,42,70,79,2
0.0045438479764762715,0.0012045048897810356,0.6618220886251641,0.1848218382941564,32,42,74,80,2
0.004326540786147278,0.0010987670575167302,0.5891584925051246,0.1677168637439485,28,34,77,73,2
0.004184294603666816,0.001111376997303507,0.5756265181202419,0.16954983765850726,30,40,71,84,2
0.0037433269614017906,0.001065312814894845,0.5468919545101952,0.18083875666910404,34,44,74,90,2
0.0035129510503452465,0.001004780300669669,0.4837335863900753,0.1642184685470003,30,44,74,92,2
0.0033788479066004184,0.001151165876233323,0.4830242683884501,0.17674235467709923,32,36,71,92,2
0.003154215204086561,0.001046940882421482,0.46935886848133374,0.16489226609523058,38,34,71,78,2
0.002698245565168584,0.001181280120504439,0.42715331302559123,0.1743991467747766,38,28,74,71,2
0.0023724128619651208,0.0010443141951711136,0.36128542643054123,0.15313457312141607,28,26,70,70,2
0.001868071087164928,0.0009173780989072986,0.2700383159136234,0.11134913359817578,26,14,69,66,2
0.0014982587757060822,0.0007181890748755191,0.1877923016476807,0.0966878693422309,22,28,63,73,2
0.0012081533871679492,0.0006953983641746968,0.14542906081472212,0.07943944880267963,18,31,58,71,2
0.002379272106882506,0.0008767243291325643,0.2701370023630426,0.10911807393202139,18,28,52,71,2
0.002800619579881603,0.000987054089577677,0.33815694121190565,0.13673674904872543,26,26,51,79,2
0.003533951135060841,0.0009836807235599095,0.4200948189512722,0.15039287915826496,20,32,58,77,2
0.003920061195738549,0.0010083062604054446,0.5158538556900657,0.16286991830537126,26,38,63,81,2
0.0042612455887566,0.0010726974398537145,0.556006025766766,0.17382726854972821,28,40,63,84,2
0.0006422659909487571,0.0022464577592692624,0.07131226219035142,0.28760909894502873,22,22,71,63,3
0.0008831983035890282,0.0032674295119140355,0.10703726207997699,0.4500158384095349,24,28,67,61,3
0.0010323071611475017,0.003884211316751344,0.12604568511695097,0.5370466550343638,28,34,67,57,3
0.0008673566474275105,0.004195042191331236,0.12425937272699886,0.5751899825389634,30,34,71,59,3
0.000879086125820959,0.0051445746725270166,0.141951495740102,0.6865578410270017,36,34,79,65,3
0.000858434535979795,0.005317619349643636,0.13424946869058535,0.7048234937415122,38,36,85,69,3
0.0008480854673849778,0.0067030871202954515,0.13866512083862165,0.853951994311602,32,30,84,65,3
0.000953177633465802,0.007454905803585115,0.14279192647910544,0.9469748373505384,28,28,76,68,3
0.0011655738964931476,0.0073584416567079435,0.1482461598510687,0.9297412766713473,28,28,69,64,3
0.0010237858831801104,0.006882642595772559,0.14508916524321383,0.9206699322244801,26,38,67,67,3
0.0009423323395441254,0.006109037162580718,0.1393203745255305,0.8390418754775287,34,36,71,71,3
0.0008649569107861883,0.005779782637288531,0.12958784956270003,0.8151912101464928,28,34,74,76,3
0.0007758408526528476,0.005430366810334875,0.11513523505663886,0.767066880061422,38,28,73,79,3
0.0007742819072545709,0.005489248060538942,0.1167583244135852,0.7415486668582254,28,28,70,78,3
0.0007558857190987113,0.00555142217548922,0.11884657465189312,0.7520486150302121,34,28,72,74,3
0.0008123957413199248,0.005547978554838655,0.12430533331666258,0.7699970921014417,32,32,74,64,3
0.0008006755964456648,0.005736604371383952,0.1345628080596522,0.8135186206815807,32,32,74,65,3
0.0008385507243508149,0.005759749221636893,0.1374885139555733,0.8447568833405117,34,36,77,67,3
0.0009125758513411946,0.005677325190941353,0.1371875359437972,0.8395271734830312,34,38,77,68,3
0.0007990725771302754,0.0049202760955081234,0.12883023682428488,0.7728165308467625,36,38,75,71,3
0.0008215885223044612,0.004522651796166801,0.12536891298162375,0.7578207963242758,46,42,83,74,3
0.0007523065402808878,0.00476030218892503,0.12434209932032335,0.722826673549909,42,32,81,68,3
0.0007486499348954685,0.005183359689608755,0.11717151991324293,0.8347520436098391,30,36,79,65,3
0.0007255470618602562,0.005816059484435898,0.1261367732741054,0.893125822193344,34,38,81,68,3
0.0007519458481915725,0.005706131303973235,0.11350257439069832,0.876052295583822,30,32,78,63,3
0.0006825740910010987,0.006455853697578077,0.11190943458650697,0.9440628421224253,34,32,75,68,3
0.0006986844898397654,0.005742509062543565,0.11817798512288095,0.8953612602663872,40,30,75,72,3
0.0006705805479145281,0.005467239385586255,0.11386051188915394,0.820778224844193,40,30,76,73,3
0.0006928731346264358,0.005409654967922097,0.11706605174192646,0.80143723510044,42,30,73,71,3
0.0008009380330124488,0.00499184175672249,0.12464811850831367,0.7605131520933113,40,26,74,66,3
0.0007795644473609242,0.004484407554921522,0.11921396246759053,0.6415029120418712,36,34,77,65,3
0.000703371592783744,0.004192797162894357,0.10911075527197424,0.6514624306974274,34,32,78,65,3
0.0006392148121461751,0.0038506982126843554,0.10682996922729292,0.6477866732819454,38,32,84,69,3
0.0005377300306829268,0.004037803798118963,0.09339432811317958,0.6272990109773083,34,36,80,65,3
0.0006362080260476817,0.004406961160667249,0.10542957962865815,0.6494845978837375,28,36,78,67,3
0.0007033739977231175,0.004297718289954952,0.11408324961712253,0.6309167992355171,28,30,76,68,3
0.0007974545892836921,0.0043141352703834675,0.12051834112595669,0.5923254732913379,34,30,75,68,3
0.0008942128700159581,0.004469410738740078,0.12705470698696744,0.6236396335566792,32,26,79,68,3
0.0007767932348025765,0.004551354195335343,0.11670339971884881,0.661692098853297,38,30,81,61,3
0.0007635011680509578,0.003534436791496967,0.09863323943416868,0.5262129066503988,30,26,69,55,3
0.0006249609471283842,0.0028817746346565913,0.07701025532744445,0.4344124239853034,28,20,75,56,3
0.0006835643443367575,0.002348205897863196,0.07527831752984658,0.2825774272101137,18,16,66,58,3
0.0005077727751467876,0.0015131751097638877,0.055394429659965334,0.15932508629203226,12,16,75,61,3
0.0007028937690621266,0.0021350963231327757,0.08277984991919395,0.23079699882505328,16,22,71,58,3
0.0007996699009435253,0.002256801893328145,0.09656770247291759,0.2547413434081269,22,25,76,63,3
0.0008783179995410388,0.002865465662637627,0.11251391668289518,0.35506978982823845,20,32,79,62,3
0.0009552519816868947,0.0034342137625810133,0.1260112512187314,0.43698311975042275,22,34,79,67,3
0.0009996077352961992,0.003722402979033151,0.14008614953801274,0.5024724564494986,26,30,76,70,3
0.0002740437471141129,0.0006028566473164512,0.03481244568437717,0.06237449870482682,16,22,80,75,4
0.00025635164292292246,0.0005338164166159749,0.03295011761974446,0.057697675440268076,14,16,79,69,4
0.00012170332233189486,0.0004742978230801977,0.017646229143077754,0.04978931797861737,35,28,81,66,4
0.00013299689825398077,0.0004664148209376144,0.01640418835733672,0.04854882568068244,20,22,80,66,4
0.0001247493575789055,0.00040503645040640955,0.01544025889040262,0.040328520695722056,27,32,73,65,4
0.00011626033382973437,0.0003991170447132492,0.013738794392389482,0.03454996350702193,22,28,73,65,4
0.00010054874367109369,0.00037223823734402106,0.013545920716171575,0.032897787152681185,33,23,79,58,4
9.732786667602474e-05,0.000350175286603959,0.013280818015983966,0.031080846649320724,30,20,87,60,4
0.00011282173840807016,0.00032949074870742434,0.014390781032797418,0.029842799501753833,34,16,82,56,4
0.0001121277920823825,0.0003210157280831413,0.014455243392112493,0.031120635362837386,26,16,81,63,4
0.00012304167778820125,0.0003417522931419734,0.015132691080047368,0.0322783344139019,24,19,79,63,4
0.00011718985360988633,0.0003641417593002756,0.014106181481243027,0.03259316875618491,28,20,74,60,4
0.00010280753636121478,0.000357104732153981,0.012291518899725263,0.03209416633528697,37,23,78,51,4
9.966948241790449e-05,0.0003513659643572179,0.012238217853847447,0.028861252773403012,32,16,82,59,4
9.652394148752473e-05,0.00030319469086713917,0.011561072898419181,0.024580396804875084,25,23,85,60,4
0.0001046984582594202,0.00033277476929921004,0.011774459734316522,0.027638591010432204,28,24,95,60,4
0.00011260464359885423,0.00034850085009241775,0.012087232652765643,0.028510050723506635,27,29,90,54,4
0.00012029398702016424,0.00047582061396457797,0.01240781857914496,0.03361820389755289,30,16,91,50,4
0.00010424889116801668,0.0003953312185001004,0.011400396228182147,0.033283112226938694,33,23,100,52,4
9.579554258185968e-05,0.00041919626906275194,0.012551279604317378,0.033285307316093006,34,20,90,55,4
9.111960218978203e-05,0.00042809238732894266,0.013037193213431046,0.037840138580669945,35,20,95,57,4
8.580153202585615e-05,0.00038663906243499525,0.01242593224376622,0.033835735106002775,38,24,94,50,4
9.187966972942134e-05,0.0004163317222078107,0.013191801354945102,0.035777596591345766,34,21,90,57,4
9.102748043273837e-05,0.00036185956130360404,0.012653826798147604,0.0333437978728523,30,20,85,59,4
9.456936319676948e-05,0.0003123116286567523,0.011574150452828875,0.029577456288704545,27,25,81,57,4
9.37135822730014e-05,0.00030904791357316103,0.012389198822510217,0.02926738604094874,30,26,85,58,4
0.00010239692053526203,0.00038230232939292635,0.012258686798177054,0.03237199024690393,34,21,80,40,4
0.0003269773467336906,0.000570384204676311,0.028179911384725025,0.04975881909650742,10,14,76,49,4
0.0009328647066757314,0.0007546899952167642,0.06307335622382933,0.07158631589701153,9,22,58,52,4
0.0010188079752772286,0.0008792426809210916,0.0683084055812448,0.08374969781386961,10,24,60,54,4
0.0010286238135916216,0.0008407323245383054,0.07210586824340141,0.09156673785480167,10,22,52,57,4
0.0008363733176909088,0.0008743654204179899,0.06056469476898128,0.08962575336752765,8,24,56,52,4
0.00021283923114774058,0.0007504880732621112,0.0252289625683941,0.07728660117157839,14,22,77,57,4
0.0001867049875832509,0.000707073354953932,0.02123367442961315,0.07121674171638928,18,20,77,60,4
0.00010634924609007975,0.0006128725174125199,0.014777990804861207,0.0586408682206106,30,22,80,60,4
9.920266922583656e-05,0.0006077238497979881,0.01462094610571877,0.05468764785047583,34,17,80,63,4
0.00010027983724380001,0.0005052382082159939,0.014777504815902077,0.05041904188600786,38,20,86,63,4
9.629930022040441e-05,0.0005077791800696093,0.014539139804657828,0.05255659288629027,32,25,89,66,4
0.0001021971989095331,0.0005087522766615502,0.014753852207049905,0.05599579101725936,32,28,92,62,4
0.00010259771024523815,0.0004928591633367486,0.013558654741166399,0.04801515694659311,30,23,94,62,4
0.00010553775869457867,0.00048287750822905746,0.01376582273966401,0.049273998959417455,28,22,89,75,4
0.00010620490803680546,0.0004578618693608618,0.013472994251096269,0.04305171161685378,30,26,85,67,4
9.593158566714611e-05,0.0004907500271064268,0.012900317685274285,0.039595345656344504,28,18,90,67,4
9.87027218928764e-05,0.0004901948395548651,0.014463272414984768,0.043052492159838585,32,17,87,61,4
9.540082561114877e-05,0.00047483197559862515,0.014469391550351245,0.03976417713215412,32,22,92,56,4
0.00010361315317379041,0.00047498626572107865,0.014415049495377141,0.04167874541553659,34,24,90,62,4
0.00010669366582104058,0.000489999069581436,0.014958400801108862,0.04189804722557355,28,16,86,59,4
0.00010196968925260537,0.0004936097212263937,0.014372719441512687,0.0452298943765349,24,22,87,59,4
0.0027547609384327965,0.005521261066026395,0.38306390224704967,0.6645154088580899,30,26,65,62,0
0.002933276107472375,0.005080627316350982,0.38966811401326684,0.6416175854694853,32,28,64,59,0
0.002997356241317117,0.005018359872264847,0.4025547729943711,0.6425194590042477,32,30,66,58,0
0.0025911706261093005,0.004717543353090847,0.37067122706969774,0.6492802531128347,30,28,72,68,0
0.002496656257458901,0.005567074655981251,0.3378368109830101,0.6777931400394238,28,28,71,64,0
0.0024687297764053777,0.004847832599898093,0.3564376309001437,0.6730669583036307,28,26,74,73,0
0.0023076034886520083,0.004466781717894652,0.34091921594073343,0.6483261992533019,28,34,73,76,0
0.002605113300032576,0.004133899891140838,0.34867784875729185,0.6191269776482645,30,32,72,73,0
0.0028060905014686667,0.003987384653805466,0.3890852022804074,0.5490293225313867,32,34,69,71,0
0.0024148437633791653,0.002607828770081388,0.2881185290930611,0.4143583690251528,24,36,65,66,0
0.0016615069141912785,0.0018198898631812154,0.21078706627634897,0.2513921414809042,22,22,67,61,0
0.0009495662796035883,0.0011903332921020682,0.12346475057971287,0.14986819905795834,12,20,71,56,0
0.00012761733268603384,0.0004969656165534942,0.018742909548066396,0.04715477242138546,32,27,82,60,0
0.00021017354521828463,0.0008219173182633364,0.037840992620598056,0.0837414101290831,32,20,87,59,0
0.0010464643593213962,0.0016991202170471952,0.13975643794507195,0.19791854584570892,9,14,75,62,0
0.0018953856807474535,0.002793132870916004,0.2346063075728571,0.32396295661199886,16,20,65,58,0
0.002454049981155052,0.0037972378331804064,0.3062897693785688,0.4619944769045342,18,28,64,56,0
0.003001277231507573,0.004921679965589998,0.36500150209040055,0.5909022622634561,18,28,64,56,0
0.0027246300609250662,0.00485847589863099,0.32977754953962085,0.6271038015450584,20,30,70,59,0
0.0025159677284560043,0.0046262550799978895,0.33074403702533206,0.6227566745406116,24,28,64,59,0
0.0028398009470775335,0.004922900238378164,0.3569375634110361,0.6877892679214597,26,30,65,63,0
0.003331562389645179,0.004924034863571659,0.40685766402475565,0.6833864652295898,24,28,61,69,0
0.0033403958886014857,0.00506077577873584,0.4261181864518589,0.7361462415231068,26,30,55,68,0
0.0034536248698741313,0.0053602932090668475,0.4203478688138045,0.7389231905003859,24,32,63,68,0
0.0033537208183782963,0.005375165362812882,0.43679430249403534,0.7380704661265082,24,28,63,62,0
0.003160075541734117,0.0056351514689307915,0.4347239388226696,0.7274001423421718,28,26,65,57,0
0.0030990777942781988,0.005972509513759703,0.43271935749508667,0.7399010695923444,30,26,65,56,0
0.0036753045349980002,0.005905966490193054,0.5014590305792154,0.776350788235845,22,32,56,62,0
0.0034002713060373264,0.00552000175793016,0.4674519571116939,0.743435120730116,28,32,56,62,0
0.0033526767689774505,0.005149970492387293,0.4490486966546829,0.750983056537791,28,30,63,66,0
0.003322838325562288,0.005483629186960876,0.43137177553751116,0.6973524449314297,24,30,62,72,0
0.002469608998170169,0.0053278453195811344,0.3361232059590171,0.7094378621228451,34,28,74,68,0
0.0024741202077532597,0.005764431750363559,0.37733113313088074,0.7325947929467544,38,28,83,67,0
0.0021972301466320347,0.005871970866163529,0.3527795302717368,0.7360567624878358,38,24,81,66,0
0.002579463225622929,0.0057995933218870045,0.40405817053840615,0.7591031361171588,30,26,81,62,0
0.0030126413467002856,0.005685913872399438,0.4509562776791703,0.7493873551262862,34,30,72,67,0
0.0029174686712058633,0.006162628107473539,0.4156869497060509,0.7501835269118362,30,32,66,66,0
0.0028925108566505904,0.005882244425109622,0.4298356917074153,0.7102073963342358,28,32,65,67,0
0.0026855776390488383,0.005431292629183629,0.38846215615798,0.656253219413571,26,32,69,69,0
0.0024451275122155058,0.005115538188779234,0.3614279400115877,0.6687362157898915,30,32,71,68,0
0.0020977274758546844,0.00446618409951457,0.3081326424057121,0.6323783663498673,28,28,73,69,0
0.002003709899665477,0.004545172866694259,0.2958752156703759,0.6378000016562407,30,28,73,65,0
0.0018421868711143386,0.0049907086818124,0.2858323812484752,0.6382382070059658,38,30,74,70,0
0.0019216448000155706,0.005031675703134666,0.298449036139119,0.6571864750734623,30,30,79,72,0
0.0018670411665826917,0.005305598680575011,0.298553422395914,0.6612130300206324,28,28,80,66,0
0.0020885129916697683,0.006092957254315555,0.30402438414112637,0.7225933978069715,24,34,76,64,0
0.002329303209468214,0.006032413719757434,0.3262495663553568,0.7068925773325708,24,28,75,60,0
0.0022406467525721806,0.005473406768309386,0.30406200469638145,0.6381601436899258,24,26,67,62,0
0.002647752726172009,0.00520970333919529,0.36971104906101165,0.6906768379253136,26,30,63,67,0
0.003971886810525754,0.003949366597618868,0.5148187422430913,0.5036903453544574,36,30,69,63,1
0.003980839813261409,0.003612119624364622,0.503220351635499,0.46298197152130494,28,28,66,61,1
0.003423231053496099,0.003302940334819302,0.4754921728620783,0.43283833430881613,26,28,74,58,1
0.0032434821983624474,0.002711093376375176,0.4210562593307643,0.3775625504040064,22,34,72,66,1
0.0032728403520419025,0.0027211232115062147,0.43571089483947223,0.37409009509404445,24,28,64,63,1
0.0032013536000807434,0.0024506813711971717,0.43311114033442866,0.322303236705735,24,28,69,64,1
0.003637974642644262,0.002419231949911508,0.4643615375846352,0.3442444808922959,28,26,63,66,1
0.0037556056846578052,0.0030620193294238042,0.473885968763019,0.38437556761249286,24,24,60,58,1
0.003737494656019082,0.0035552245340009976,0.46064543345482734,0.4137638842061902,26,26,64,53,1
0.0029530304462952717,0.003091192534574104,0.33739718363595955,0.35709056246679677,18,20,56,48,1
0.0019985065785620383,0.0025786209305868986,0.22493480614492298,0.27949190924980566,20,16,65,47,1
0.001121715122919554,0.0016424494003910194,0.13469781776707898,0.17385126524606417,14,16,63,68,1
0.0007311263641800625,0.0010679222632370906,0.08165630321540458,0.10504620964921488,18,17,60,66,1
0.0011486545111433087,0.0016380703826675506,0.1330606372201822,0.17392051428264935,18,20,66,67,1
0.0017829505710003646,0.002237214450530999,0.18674643951185707,0.26901026975697995,24,18,65,67,1
0.002311249472013956,0.0030477957010969225,0.23978999606095613,0.35220874428704096,22,22,59,63,1
0.0025990148596842884,0.0030986728191996697,0.2789154645877264,0.39681442978073256,26,24,61,61,1
0.002560145030251383,0.003280753887460882,0.2883433438434403,0.41419723985071805,22,22,71,57,1
0.0024106156311449636,0.003158025900887889,0.29154212587130435,0.39098034778096885,22,32,68,55,1
0.0022045661141206073,0.0028362646911164057,0.2807970650919348,0.3366817449668876,20,30,77,55,1
0.002303974207256882,0.002669127045547383,0.28569052123381417,0.33107662056556625,28,34,73,62,1
0.0028324780711720186,0.002989850731388999,0.32131741960154914,0.35658485048293415,26,30,68,63,1
0.0029133070283019337,0.00268256196915959,0.3435721814709648,0.3253141048375424,26,28,65,68,1
0.002842562186022279,0.002913527721674333,0.352024604510395,0.3591020831257853,30,24,67,63,1
0.002591387273979196,0.002558011769694226,0.3288860405846783,0.3334371602655151,28,28,73,59,1
0.002210040376054305,0.0023986252626892694,0.3059196046852402,0.31592200198114156,36,30,71,56,1
0.002100883325348849,0.0030119014108906566,0.3092002964017753,0.3900819593882998,28,26,69,56,1
0.002387929132038006,0.003061118311731671,0.3372400016556738,0.3738671706088665,34,22,65,55,1
0.0024023190134345586,0.003250143861499799,0.34259945266662956,0.4120800070187238,34,24,65,58,1
0.00260679954945318,0.0031105523089616244,0.3632340683462357,0.3867749860391813,24,22,67,62,1
0.0024781198478164655,0.0027003141029564824,0.3346367371644087,0.30727605131301416,26,22,67,60,1
0.0023932592247386045,0.0031930358118300722,0.30453655931230295,0.35414022545943225,26,24,69,56,1
0.0026321996398732538,0.0032375700546103826,0.3321948639333618,0.3430020467873365,30,22,64,55,1
0.002353986119610301,0.0030328703872584003,0.30965575554866437,0.3558684515531203,34,28,63,55,1
0.0026094878879730464,0.0030044052208673404,0.32457302208124034,0.3767858302351482,28,24,67,56,1
0.0033218920590611105,0.003016830266113023,0.4121650779710429,0.360819638155265,26,18,64,59,1
0.003957206222555781,0.00296562666638695,0.546765539142527,0.34068490824491376,20,20,62,66,1
0.004497454137434441,0.0032086653858483046,0.6095448850448918,0.38377804386505093,24,22,61,60,1
0.00461519806981147,0.003201101572287464,0.6377483167750185,0.41101845858041935,30,26,63,65,1
0.004898602906795939,0.0032462428598144686,0.6283457577384441,0.4284282766246577,26,24,65,57,1
0.004107407914067885,0.003331901617786098,0.5224058510977918,0.4196580070682118,28,26,68,55,1
0.004112044614759167,0.002831632199807409,0.49618257984018044,0.3692077136939937,26,30,64,63,1
0.003936070736317783,0.0027770224718792736,0.4922204600014227,0.33222555722063307,28,30,64,64,1
0.003446310833934315,0.0029251250040735755,0.4440778192479224,0.3505571371577805,32,28,68,61,1
0.003348057342106911,0.0032019413120385827,0.45504151958829325,0.36800213099349033,28,28,69,61,1
0.0034024920972067145,0.0035044481439766772,0.47101432647420494,0.38961894512825307,30,22,75,60,1
0.003276059239106139,0.004225895786126555,0.45534556593705194,0.4630984202842906,24,22,74,52,1
0.003297814971223189,0.0038212517247459103,0.47024078533408803,0.4424643744697795,32,28,71,54,1
0.0035079995707007084,0.003795176859559966,0.43503860003552,0.42325970409082464,24,24,72,57,1
0.003321829089543525,0.0012995979262199495,0.5423906769971607,0.18066832366619004,34,30,74,79,2
0.0034167131746839054,0.0012877653371388142,0.5395058377375576,0.17534200271307707,34,30,71,78,2
0.003548707567355326,0.0011758936509442999,0.5292006379861594,0.1564247112142927,36,28,75,75,2
0.0033564372311941813,0.0011183468545812292,0.5407760991450073,0.149654666061469,36,32,73,68,2
0.00302876786803439,0.001118627967533632,0.484853741127999,0.1392364495242038,36,24,73,73,2
0.0029475278087171975,0.0010621863519752748,0.472472224725685,0.13578784543314393,34,22,73,70,2
0.0029752410239627758,0.0011357570563547503,0.4579039679088797,0.14070742615579765,28,28,75,77,2
0.0027731560914228733,0.0009969967796826485,0.44533626879040883,0.13179326701103375,30,38,75,76,2
0.0027442721852183605,0.0008556641741272335,0.4377971799818172,0.12433665161168816,26,34,72,77,2
0.002491501865158325,0.0009597997429257022,0.3960852974844665,0.128148401481449,24,32,68,77,2
0.0028494352848175025,0.0008662889725774227,0.3854728114926303,0.1311372426053148,20,40,66,81,2
0.0026301022786708083,0.0009649021080032933,0.3705488189933915,0.14513242013247385,26,36,63,77,2
0.002840606964255686,0.0011056602564233286,0.3696135593811529,0.1604774595172557,20,36,63,75,2
0.003472184710534141,0.0010706321862415486,0.4744369545379851,0.16194791300295933,24,28,63,77,2
0.004147962462308706,0.0011276358470662185,0.5838327566908382,0.15728816761471434,30,28,62,73,2
0.004510752578923275,0.0011098755111266653,0.637990341711448,0.148283818731465,26,30,61,84,2
0.004825572775065687,0.0011901766957431946,0.6814471268910007,0.16084296432204406,28,34,60,87,2
0.004740802971167213,0.001195588878587589,0.6427423230942907,0.16707860496817437,28,38,63,80,2
0.00427595244613415,0.001077476691159354,0.5662870820023312,0.1673795063435501,24,48,66,86,2
0.004324570675251992,0.0012528567236410881,0.6145586882083146,0.18502095218739392,30,38,72,82,2
0.0042861166814523064,0.0012922967336032624,0.665775417987299,0.1779428405199191,32,34,71,86,2
0.004514121964069079,0.0012402565649990546,0.7216057664693152,0.18001292500007068,38,34,72,88,2
0.004267072287474621,0.001281338086349134,0.7404528263247478,0.18623660074304474,40,32,85,83,2
0.00445270789545599,0.001209957117085233,0.7603465634044044,0.17873032011142578,38,32,87,87,2
0.005235191163776771,0.0012361953494050715,0.7415902846716385,0.19066503649151767,30,34,82,83,2
0.00539767926977818,0.0012199893026708182,0.8171612308571147,0.192808987385087,22,38,76,85,2
0.006297934042128538,0.0012372437954486172,0.9472952115610788,0.1893116117639058,26,36,72,88,2
0.005883643842319581,0.0012639819057484588,0.873617761386642,0.19096994725199418,26,38,71,78,2
0.005988531954090532,0.001189809633321185,0.8713422320938006,0.1734162763581146,30,40,73,80,2
0.005551826847206758,0.001185279395021911,0.8492072145673805,0.1850213725296414,34,40,81,83,2
0.005368813847744636,0.0012903808812105158,0.8747824557659264,0.21694811437230266,38,36,82,81,2
0.005785271799109647,0.0011997318391139139,0.9436152904048603,0.20245019135027015,36,40,79,88,2
0.006126855283050848,0.0014340735430377408,1.074151381136752,0.2260524967343143,32,34,70,84,2
0.006267527119337506,0.00151788263133284,1.084084711815688,0.22896011376908545,36,24,68,77,2
0.006199909441438127,0.001356982801759683,1.0289916606135472,0.198685450130672,40,22,67,80,2
0.0060535821282905085,0.0014905959119785822,1.036284151593568,0.21114571114441238,36,24,68,79,2
0.0052642511572001185,0.001200547926263714,0.8685488103169638,0.2054028621914436,38,32,69,86,2
0.004537348511595443,0.0011259100118060914,0.7971241402838919,0.1871735774282617,34,38,71,88,2
0.004459338440672952,0.0010867830820499467,0.7134284475395097,0.18109965022617142,32,34,75,86,2
0.004351356962714788,0.001258772049478738,0.6624259509893811,0.19104922210762637,34,32,73,85,2
0.004175062009484637,0.0012786949322663044,0.634426700029112,0.18983112918626996,34,32,77,82,2
0.004376094201062288,0.001320902156209242,0.654947849115875,0.18637013551796913,30,30,75,78,2
0.004364729662829654,0.0013080755879015513,0.723491861002029,0.19045779955791664,32,32,76,76,2
0.005329844272347348,0.0012670555073745727,0.8799756340081807,0.18622112852225675,32,38,75,80,2
0.006016277280810044,0.0014168913411994994,0.971120296947008,0.1965844234086525,34,30,70,73,2
0.006423036327881615,0.0015880840946715072,1.0229285970646378,0.21984124920925907,34,30,77,82,2
0.006461595526307499,0.00169383071874111,0.9964091072993662,0.23606288957106691,30,32,75,75,2
0.006134552105266782,0.0016509899772686597,0.9055327189784045,0.2514505015491503,32,34,70,69,2
0.00597524115909996,0.0017410097450915431,0.868092132719198,0.2374745283526043,32,26,69,74,2
0.0009013160642000196,0.004334220119123213,0.13436789298522966,0.5828375721179988,40,28,73,67,3
0.0007743880025848106,0.004022958609063488,0.12078237323562134,0.5386792002622155,40,28,80,65,3
0.0007460071684006034,0.004223016257298093,0.12152690610607594,0.5919693152005332,42,26,87,64,3
0.0007623408032367607,0.003942105492882299,0.11899307164739412,0.5959389557027727,34,36,88,63,3
0.0007734231161458004,0.003933809583663139,0.11733139755065136,0.5572266708051382,34,28,83,63,3
0.0007672043264370673,0.003919173806514112,0.12355037298077312,0.573605280169041,38,30,82,69,3
0.0007408904392385881,0.0035644183830620575,0.12387321308670644,0.5024857156871182,40,32,83,67,3
0.0006371198547898617,0.0030630907924018872,0.11350885138009602,0.44033444724017523,36,28,84,70,3
0.0007271450271261769,0.002998254081117377,0.12408634312386993,0.42850619027520426,38,26,85,73,3
0.0007016802221161599,0.0024887987973436355,0.10329276296757083,0.3349112183210524,32,22,83,71,3
0.0007769003097375898,0.002403098539568271,0.1035803787850161,0.27244853669321345,20,26,80,74,3
0.0008535428219133308,0.002638093187580534,0.10557871776633995,0.31495918786733396,22,24,74,64,3
0.000691062743529406,0.0028323830572201197,0.08678324705630895,0.351562753986514,32,26,68,59,3
0.0009478287762721291,0.003586402802339015,0.12032690285836557,0.45460988803324154,42,32,70,61,3
0.0009261159291076056,0.0038904387194708167,0.13244426726953634,0.5313764388741432,36,30,72,64,3
0.0010222454859121636,0.003984974539894988,0.1557648285529742,0.5471724071359835,40,32,70,72,3
0.0012460610270942168,0.004609511594373598,0.17465839146311388,0.6225008690248084,32,38,76,69,3
0.001290057882728224,0.004731776351146915,0.18817324409737757,0.6340985735983871,32,36,79,68,3
0.0017839928574379213,0.004362147536070193,0.19901558770642572,0.6213429363080223,26,32,81,74,3
0.001773636825341732,0.004910710102324201,0.20672242770573607,0.6719017934350491,36,32,79,67,3
0.0016250739954364862,0.00523609748619983,0.19691745476061862,0.6440931182897675,34,30,78,70,3
0.0013836377310331338,0.005003830194363087,0.1782162438117498,0.6369423888667293,38,26,75,68,3
0.0009893103867167645,0.004937442352888771,0.15201252257851428,0.6250067518563095,34,24,77,67,3
0.000906897771284406,0.004926956345891168,0.14510169984386911,0.6104857999822244,34,28,74,73,3
0.0009321195662517816,0.00526694983484456,0.15167192198832508,0.6682082549467575,34,20,76,74,3
0.0009797001098320994,0.0051028761359017474,0.15019673390369198,0.7060157434397326,36,28,79,80,3
0.0009835441856545614,0.005369662635744358,0.16043189460541069,0.7507854620111085,44,30,80,72,3
0.0009723417122127488,0.005670084986699181,0.1549819029746291,0.774488540516745,46,28,83,71,3
0.0009988245345442107,0.0049898806600089905,0.14813872177825732,0.6754289749811004,36,38,85,74,3
0.0008479558327559598,0.004418841271876163,0.1434470800995832,0.6291138685840297,42,34,86,70,3
0.0008980867280477306,0.004671984469332401,0.13413575296494362,0.6712332329682459,40,32,94,75,3
0.0009078343621711773,0.004425502081051631,0.14144922869687104,0.6401276040759215,30,28,89,74,3
0.000965144539044157,0.004129130925000755,0.1397063259147266,0.6337566649494519,26,28,89,74,3
0.0010032287800290137,0.0043015583810730035,0.1540312877435844,0.638586937943534,32,32,85,74,3
0.0013631094363554769,0.003940604067805378,0.18846955552930975,0.5797365279026101,34,38,72,72,3
0.0014557156508104396,0.0038942804882298137,0.19154896228557497,0.5831441930376472,34,38,76,68,3
0.001542470536496209,0.004523942476563699,0.21041135795392366,0.6268930870376664,34,32,72,63,3
0.0014575984448443073,0.004042947273795949,0.21089623787182196,0.577494089268069,34,32,75,65,3
0.001217731407873803,0.004212781727471317,0.19071167581143203,0.597821799131693,38,28,81,66,3
0.0011722559530040842,0.004386447223505654,0.17991546641532338,0.617451422872111,34,28,75,66,3
0.0010447546550027926,0.004153696538980542,0.16460440959283912,0.5664811267180359,46,26,80,67,3
0.0011025581152916417,0.0043859056821965,0.16607650377608849,0.6483649087904853,44,32,81,63,3
0.0011514986548869215,0.004136624203685334,0.17356209841196735,0.6117174277965589,40,34,83,66,3
0.0011955934405469299,0.003975278582414456,0.17546231829575326,0.5669087223723865,40,34,91,62,3
0.0011756303074046133,0.0042732539200984075,0.17167213891824953,0.5929378944356458,42,34,85,58,3
0.0012799309440077098,0.0039891119624037045,0.17815643965393613,0.5654850360250743,28,34,78,61,3
0.0011950844914050145,0.00417917442936886,0.17800546209675097,0.6046466500008152,36,34,72,68,3
0.0011886685881828836,0.004278592771764419,0.18531526403933493,0.6254273731625926,32,36,72,72,3
0.001226972559724742,0.00440746534806503,0.20128857760891958,0.6106873519649666,30,42,76,68,3
0.0002289791862662973,0.0003796959349011103,0.024875050418877838,0.03416701078924454,16,26,75,58,4
0.00013417250819890112,0.0003863308201404084,0.01586805848352047,0.03260411626290047,29,23,77,63,4
0.00010256022204843326,0.00035605241784231314,0.014532864527974858,0.03198272716195686,40,22,79,59,4
0.00010787173520765669,0.00036069324103747463,0.01331341589313742,0.030436988216715852,37,21,75,50,4
0.00010759622366002444,0.0003207391488277482,0.012993782754698226,0.02971540119079169,28,20,74,55,4
9.881387305097803e-05,0.00031530720124643864,0.01164824470338728,0.02742537736284659,29,25,76,55,4
8.790536138309452e-05,0.0003281528132613932,0.011643080048052897,0.027030498130241765,28,16,83,62,4
8.739789528994407e-05,0.0003217640451144652,0.011962713036520887,0.026969674237426536,29,17,82,59,4
9.552776513827286e-05,0.00028030407640614334,0.012542374984946245,0.026167986809606168,30,22,88,61,4
8.466648404624467e-05,0.0003188229328850276,0.012329786868632146,0.02558373014379142,33,19,83,60,4
8.847633997416478e-05,0.00031532296549928023,0.01322063194700744,0.02552788236346196,30,18,85,58,4
8.917880862540668e-05,0.00032429625790161056,0.012697536705710945,0.026631218486826504,30,21,87,59,4
9.504633834318571e-05,0.00029239968903697856,0.01207710208793372,0.026542044049595283,28,20,88,60,4
9.958180977325119e-05,0.00032036292108187015,0.012295537426937073,0.028125537510363632,23,17,87,61,4
8.549486746457321e-05,0.0002891000245337419,0.01084735400746687,0.025476612628331702,24,20,88,66,4
9.535702792489828e-05,0.0003101612305029808,0.011835223874382315,0.0276568671874611,28,25,86,53,4
9.648998590500411e-05,0.00029245007793823815,0.011649038447068764,0.024495666215018676,24,16,86,60,4
9.465410015523678e-05,0.00030668555251765235,0.012201110864866872,0.026884533152000716,26,21,85,65,4
0.0006525941911773306,0.0004905540123781437,0.04469786981099747,0.04632541332510638,6,14,62,64,4
0.0008483471560503237,0.0004785384927441896,0.058687113440169664,0.04938424218497124,12,23,58,60,4
0.0008719326106210959,0.0005223353043437795,0.061842690578130424,0.05207937077362148,10,20,52,62,4
0.00044830925651333014,0.00047496629175969654,0.04599512937825954,0.047880956055514415,14,18,58,62,4
0.0003889507797406498,0.0003300689974130061,0.03887077627935069,0.03234441694558168,12,18,72,65,4
0.00015532950563244558,0.0002934670917588969,0.02226698834466888,0.027306456011304225,26,27,74,62,4
0.0001294277171579711,0.00028611757257041703,0.01913374433567989,0.026809060737211645,22,22,80,52,4
0.00011772274452508795,0.00025022313495640124,0.017476494049586212,0.02295942641715729,30,31,78,55,4
6.682310413450169e-05,0.00026016699570063044,0.011056539212473892,0.024698181237565276,30,26,82,52,4
7.164171572056758e-05,0.0002911681758328366,0.010780732711796172,0.024917427625731917,31,25,77,59,4
7.760237290129961e-05,0.0003195867608550329,0.010460771774140768,0.026698369530099117,24,16,85,52,4
6.802835788750788e-05,0.00034980037178912953,0.009505212790338419,0.03092287111823599,30,21,92,53,4
6.844322208612542e-05,0.0003011160567238403,0.009104630925482521,0.029350363743849042,34,24,93,60,4
6.640479776482688e-05,0.0003124861768927452,0.009773834133326761,0.029480760681894914,34,23,92,59,4
6.588611182512515e-05,0.0003254550804148428,0.00978474220467269,0.030769440913188412,38,22,88,59,4
6.92623846744071e-05,0.0003129473174502583,0.010235301130632583,0.028277106728547205,28,23,76,64,4
7.19885404598746e-05,0.00032319331999507985,0.01000525395111107,0.027727264025133595,24,20,75,63,4
6.139987744426148e-05,0.00033268305221060104,0.009300319253545164,0.0336566855698905,33,26,79,62,4
6.118032097266965e-05,0.00029421294380545254,0.008910847873953595,0.029314625163985062,30,22,71,63,4
6.126599410364794e-05,0.00031701184592108466,0.008735282763928001,0.030471438181645254,31,25,85,59,4
7.453491673786618e-05,0.00028858090157960387,0.009080498251222997,0.03062207272336277,26,28,90,63,4
7.291926487792409e-05,0.00028069377895628163,0.009243095396083813,0.028691597092890812,29,27,85,59,4
8.115835487425238e-05,0.00028554149236707565,0.009594782479235913,0.029187212081316524,16,26,89,58,4
7.52324684117199e-05,0.000330747093848835,0.010222477806547673,0.02933628344550488,31,22,84,60,4
7.077573236948389e-05,0.00027904613356824406,0.00984783149791101,0.0271833605545593,34,22,86,54,4
8.716437512372898e-05,0.00029040062241418986,0.010138384783742013,0.02582018658619977,32,18,87,59,4
9.011556398679364e-05,0.00028090871077660854,0.010102673108283897,0.026792528888337136,28,22,82,58,4
8.349135030729275e-05,0.00028532557708640276,0.010159135835187905,0.026665533042672027,21,23,84,59,4
7.28883007683219e-05,0.00030987599047490466,0.010359802384432232,0.028431716273110003,34,20,82,52,4
6.645858054707608e-05,0.0003166562654830857,0.010279288518134887,0.029877952301456512,33,27,87,51,4
6.772892279549467e-05,0.00032627670117383163,0.010697134464303698,0.0308739679402833,36,24,88,58,4
0.004633362216507184,0.005466063479600185,0.5746936768639903,0.7783480714443112,24,38,60,60,0
0.004927899399745953,0.006074534461724603,0.5823205709838228,0.8479695703767594,24,32,57,57,0
0.005287906450866291,0.005716497421561594,0.6509788966751453,0.8505257969940813,26,26,57,62,0
0.004826886289727362,0.005470407953440255,0.6353400543820782,0.782679212674017,26,32,53,61,0
0.004499414983661364,0.005158410799785497,0.5932544933431969,0.7636190720519044,26,34,58,63,0
0.004326479592169819,0.005158133624949922,0.5934068822654063,0.7201952191556771,28,34,64,71,0
0.0037500133228358353,0.00467106867948566,0.5084718776541179,0.6986729349627782,28,38,59,66,0
0.004284371896968958,0.00517448979400328,0.5421532927415913,0.7354542533549608,26,36,58,70,0
0.004201330254814884,0.00516147585888127,0.519574488443967,0.7068584732442806,26,32,63,72,0
0.004183511943347146,0.005398378419205092,0.49152693503702005,0.7531251274415504,22,24,65,70,0
0.003939723078157303,0.0060884687575667295,0.4864475230025471,0.7562586236751254,22,24,67,70,0
0.0031867139401588964,0.006216684860448584,0.42728702471960606,0.7881148148779881,24,24,71,64,0
0.0030656405428729117,0.006788814432420342,0.4074502574054112,0.8886295918959819,24,34,65,59,0
0.002754222386212908,0.006511357266629423,0.38016413712011643,0.8030470383430292,28,30,75,60,0
0.002938134065635985,0.006194737274195059,0.40141725587118726,0.7747682846683407,30,32,76,59,0
0.0028018511175120987,0.006258929114133422,0.3608275022756426,0.8284025710699867,22,30,77,63,0
0.002589557882095414,0.005500431987997359,0.34167970370513845,0.7063288816579012,22,30,75,62,0
0.0024703162571571603,0.005416320084901362,0.3386769296618441,0.734678441391355,24,32,72,60,0
0.0024636087542772352,0.0057440514132040465,0.330506162168813,0.7202752919418514,26,28,69,58,0
0.002605618251609948,0.005205331458737733,0.35665820135016757,0.6627648279040421,28,26,70,57,0
0.0028566318589299073,0.005250481087248727,0.39425058565502036,0.667004481638256,30,26,65,62,0
0.002817668026937265,0.0047186069605846485,0.40323130944276425,0.6555847681602507,26,24,68,66,0
0.0026368539645421824,0.005082757641619546,0.3917749528684185,0.6958529898609032,26,30,70,65,0
0.0028772523397832504,0.005279242567399526,0.40532598605891934,0.6749827915675667,28,24,66,65,0
0.0046070037595171255,0.0034486217833834716,0.5187342268206009,0.41033659611313805,24,32,70,64,1
0.004240340257028427,0.0034981223099548936,0.4730427588787304,0.3962559320097749,20,24,64,64,1
0.004182768618871141,0.003667008321914177,0.4766686998381628,0.42987986131382466,24,22,66,61,1
0.004356204921650337,0.004015116324072141,0.5239748344252606,0.44574401159712573,24,26,62,60,1
0.004588448677264425,0.0038760199318147027,0.5475614928718235,0.4550668981763045,22,24,59,65,1
0.005414371668130595,0.00422600688425968,0.6141797670762348,0.47241266866406967,24,24,60,57,1
0.005765117054083296,0.003974983828689796,0.6278376708196363,0.46410947222661814,24,32,55,61,1
0.005273947929868579,0.004015371128188704,0.5662815355566022,0.4942598402577106,28,32,61,59,1
0.00526079525624449,0.004007486375036301,0.5851267092997389,0.45954133489638727,22,32,63,59,1
0.005051771527974672,0.004028245691434836,0.547448423290966,0.44566076688283435,24,28,65,63,1
0.004181505599893178,0.004430656722743746,0.5204199601281451,0.4723727716971024,22,30,63,64,1
0.004178342818204428,0.004340424136673205,0.5389334351290703,0.4603754529309983,26,30,62,65,1
0.0036200385895407403,0.004233902410644675,0.514971553105106,0.47181085085774227,34,32,64,64,1
0.004162280851761955,0.003971464985214256,0.5629615163391802,0.44326419425492763,30,34,67,63,1
0.004124756944306439,0.0034215535122574326,0.5634688636245678,0.3771867960232437,30,28,63,65,1
0.004067212544926728,0.0029277913528702308,0.546860395124382,0.34511928041130996,26,20,63,63,1
0.003676853148363373,0.002978340351847646,0.47519224555879974,0.3528466271922174,22,25,63,65,1
0.0033982833359256694,0.003587921567761147,0.44301272815269144,0.411729928264064,24,20,63,58,1
0.0034418793746535154,0.0034723988699128833,0.43744328677979033,0.42775531878161027,24,24,63,59,1
0.003436003521610214,0.003394835648658461,0.4285726321536509,0.41220973574696707,28,26,67,62,1
0.0033205869449649894,0.003356839822410226,0.45297756275730394,0.3792791718650518,26,20,71,66,1
0.0036408045887314374,0.003536896045886444,0.4705676870557347,0.41611204932637413,28,24,70,62,1
0.003807063017529339,0.003747044422001282,0.47736258382445795,0.4371687811951272,24,22,63,59,1
0.003860343699484089,0.00428863757008706,0.5228264557571266,0.49683925374120347,36,26,65,60,1
0.004884424618755022,0.0011614448668208711,0.692602146258544,0.1887695016579033,30,42,63,89,2
0.0048984615850964225,0.0013190846653826182,0.7327759534960034,0.19118055341268217,32,40,63,86,2
0.004968798918205169,0.0012310688813107961,0.7200371619556122,0.17710936747832298,30,38,65,88,2
0.0048133849888694225,0.0012007704437937195,0.7149341565504754,0.17560842016068287,38,30,68,88,2
0.004086560152790296,0.0011689604775732918,0.6134992533094104,0.15943092445484572,36,30,75,86,2
0.003848033504900229,0.0011874547398873115,0.6205311808195864,0.17038735587487522,32,30,84,83,2
0.004044436997222025,0.0013261171283982945,0.5841714582968393,0.18300365762371618,24,34,87,83,2
0.0036192532370340224,0.0012390699588987863,0.5582039240959586,0.17565416424205268,30,22,81,86,2
0.003765067723405648,0.0012588937867712318,0.5991578073485767,0.18224154873805387,28,30,74,81,2
0.00396877462770214,0.0011336223971304352,0.6062118793417763,0.1693131333978137,34,32,71,81,2
0.004704665402031849,0.0011945183662584985,0.7109127766884211,0.17489818834174395,34,28,66,72,2
0.004997499002228978,0.0012325190561691029,0.8523986727548357,0.17727131370233382,36,30,75,72,2
0.005530569199644814,0.0011464181254256752,0.9874240853772276,0.17881970162842833,34,32,75,73,2
0.0062571045470460876,0.0012879135349966283,1.0730331513588691,0.21087992114264859,40,34,71,71,2
0.007030373582327797,0.0012151620662365246,1.1462473884897506,0.20057294967338254,42,34,75,71,2
0.006909309823088403,0.0012458364819504949,1.1311729866859896,0.20204775459866933,44,38,74,79,2
0.006228727892092178,0.0014786553065510141,1.021115993972401,0.21823955505033693,38,28,72,76,2
0.0059386248552828055,0.0014240931231571234,0.939675534232578,0.20300695029844731,34,34,70,77,2
0.005057414448077819,0.001443455350181412,0.8113577249434593,0.20517071124420136,26,34,67,77,2
0.004745355296872276,0.0015566582692512936,0.708699257614171,0.19269991087701835,28,26,68,87,2
0.004343234915713874,0.0011215640593694794,0.6779344726041749,0.17068091060882573,32,36,68,88,2
0.003991125743987239,0.0010673639054664533,0.6111850270280903,0.1633863571007137,32,38,74,84,2
0.003436830971408735,0.0011383572349857563,0.5598993112500901,0.1673097807514192,34,34,70,87,2
0.003274865080978321,0.001285767333381023,0.5229496521772525,0.17684521573425624,36,38,77,83,2
0.0009956363793499838,0.005062870533320757,0.15278006482608666,0.687011941949732,34,26,75,66,3
0.000960626571184673,0.00574252672119291,0.14685214938686547,0.7601058426213236,36,26,86,66,3
0.0009539218430505038,0.00683423576687687,0.16009274578007082,0.8264521131438128,42,26,83,65,3
0.0008247374830845648,0.006558152698046534,0.14513012824725466,0.8550825678354493,42,28,90,61,3
0.0007393658011982078,0.006341607743892384,0.13101329403335005,0.8025750791983862,46,26,84,61,3
0.0007549592813547571,0.005935989178375511,0.1353637541264965,0.7827004422539672,42,34,81,62,3
0.0007675906058404021,0.006052025925758511,0.13369202129139798,0.8038208646358882,42,38,78,57,3
0.0007957767183406931,0.006013093719283844,0.13088287873906912,0.8220349212417059,42,32,75,62,3
0.0008122782566377306,0.005903550957279906,0.13222306766338476,0.8004853702577621,46,40,74,67,3
0.0007880425935376955,0.005723694193777789,0.12629046129557425,0.7621319002211293,40,36,76,71,3
0.0007406492457305613,0.005486198927460301,0.11301066122891702,0.7097158912417119,36,38,80,71,3
0.0007577790130498252,0.0051022977954832075,0.12650323353347112,0.7160452396990997,36,36,81,73,3
0.0007615839692224104,0.005011496643224384,0.12791626859599028,0.7026085592911919,36,34,83,70,3
0.0008425926299877913,0.004737615558362917,0.13590999999257392,0.6936216458317985,32,36,77,73,3
0.0007676633582816049,0.004657872609457514,0.1329605325706577,0.6785787781410599,32,32,81,72,3
0.0007199071438939303,0.0043745000488500385,0.12726969265101065,0.6102258003440063,42,32,84,75,3
0.0007892817105828413,0.004079536659179958,0.13674638717592597,0.5896784621685264,40,26,84,79,3
0.0007533240646143032,0.004026377267392719,0.1344350587177463,0.5742447638524472,40,26,84,72,3
0.0008689092241069165,0.004099219633608861,0.1502967959103617,0.6137352227862046,40,26,82,78,3
0.0007924597074178759,0.004514021162083342,0.14351169899026336,0.6662699610120585,40,24,80,70,3
0.0007836166436803256,0.004730421880969433,0.1414402789857072,0.6803651633421598,46,28,77,67,3
0.0008542079048607177,0.005121978031999039,0.14583630377228632,0.6793833214372658,40,28,77,62,3
0.0008791413559988574,0.004651082055237796,0.13608580588710487,0.6299385536177684,36,28,74,65,3
0.0008977110037794628,0.004332743155127513,0.13859348466882465,0.5778666639695383,40,30,71,68,3
9.905965749894573e-05,0.0004606261979683874,0.014611749986734588,0.04563399656019697,30,18,89,61,4
0.00010135842491941914,0.00043407885435635266,0.015203397401131843,0.04285536896175709,36,24,91,62,4
9.596252174553626e-05,0.000476953570744842,0.014834722340351537,0.04337733414057046,32,22,85,59,4
0.00010250909501739025,0.0004241977776779599,0.013521719142960053,0.03835913362121597,28,19,91,53,4
9.043625264993098e-05,0.00040864847239906145,0.013675442885786702,0.036137737549583084,28,20,88,58,4
9.132966971952022e-05,0.0004111264476713797,0.01331903528152173,0.03518767551413173,32,23,97,59,4
9.099375482240146e-05,0.0004546011181519242,0.0134546265215066,0.036897148742151976,26,18,94,50,4
9.198770528870852e-05,0.00045066670751183613,0.014532143361770701,0.03950621334444025,32,19,88,64,4
8.997890949024135e-05,0.00041315862229895293,0.014198508125810885,0.037420024369177726,34,14,77,52,4
9.756376377638554e-05,0.00048545342248320267,0.014568587302297587,0.042743555476473766,38,15,74,54,4
0.001465169105182697,0.0005897650097061497,0.08641387068268351,0.04810023250271645,4,18,75,65,4
0.0015809669884886092,0.000626466555376085,0.08960696551388238,0.054577463488316345,4,14,68,63,4
0.002006344790328998,0.0010455345787295748,0.11919028440928457,0.07210214121440466,6,12,68,60,4
0.001973015423176944,0.001125830333898979,0.12114267559240895,0.08400845451201404,7,18,50,65,4
0.0008734277182380048,0.0011177540467715052,0.07342066716096071,0.08492936417752286,10,16,55,57,4
0.00063882155828922,0.0007813417328314815,0.06431580744337775,0.07560696835162588,20,20,57,58,4
0.0005458784903483969,0.0008180609969213569,0.05371507122545364,0.08045586359194822,16,18,61,62,4
0.0006075335505444156,0.0006629938426732097,0.06351907074328443,0.07161079789906169,14,24,63,65,4
0.0004972803059082627,0.0007070018308412954,0.0497683965998972,0.06774383653782355,14,20,72,61,4
0.00037545498217447695,0.0005821172248664296,0.043878713996071336,0.05409993636229444,21,22,79,67,4
0.00035694761813302744,0.0005339735493780763,0.04010238215853146,0.046591462789386764,14,18,78,77,4
0.00032301800330938006,0.0005388494129049344,0.03618006533742624,0.041198674699565126,14,15,77,67,4
0.0003406516270691905,0.000549239469371695,0.0341517074700557,0.040741918078393884,12,12,69,57,4
0.0002481979837482761,0.0004726889445072256,0.025838987940817,0.03739764152358137,18,19,76,60,4
