f1ch1,f1ch2,f2ch1,f2ch2,f3ch1,f3ch2,f4ch1,f4ch2,Category
0.004006372926709207,0.021487972166794638,0.3732752213688981,1.079565134952374,28,18,60,33,0
0.003916181636719078,0.02094556782762471,0.37611435158758544,1.0734911195829877,30,18,60,29,0
0.003979888668231844,0.02136153323963765,0.3900609445955632,1.1036860064116056,34,18,66,32,0
0.0043824254075391506,0.020692675265312516,0.5077499390525252,1.1304297330932715,28,18,66,32,0
0.005274321518623444,0.021027636478531266,0.6333027058688471,1.1533635739493253,30,18,72,36,0
0.006103560913358921,0.02133192313228592,0.8345783399176551,1.1915799981730497,26,14,68,36,0
0.006813547962130805,0.021331255056702574,0.9651295948421847,1.173416602429011,34,16,68,30,0
0.007848723873093565,0.022124421912322577,1.0472569017768674,1.1757429759904519,30,14,68,28,0
0.007816632796666433,0.0215954439021766,1.025845697417858,1.1877147046486203,30,18,68,24,0
0.008386160579520933,0.022211285260395588,1.0166277878208712,1.207876945483616,28,16,63,32,0
0.007659357595285866,0.02282149776560995,0.9689660314006845,1.2823298095852123,28,16,64,30,0
0.007396562283057273,0.02188068700935244,0.9589524514136449,1.2746996093488427,30,18,65,32,0
0.007737688108029412,0.02209764124781399,1.011070117253678,1.2553045580497801,30,14,66,31,0
0.008151625088006825,0.020511879956719662,1.0971199927845137,1.2301420050130676,32,16,62,30,0
0.00824934689359544,0.02074793949360299,1.163506739397452,1.1485914133300235,34,16,58,32,0
0.008960823768727684,0.020185217948805536,1.1615878328243496,1.1706758073699175,34,14,60,32,0
0.008630112566397957,0.02028341570685827,1.1687747560951172,1.207511489036496,30,16,61,32,0
0.00763389166680274,0.019776646065715393,1.0846426345661087,1.1733357437838774,34,20,65,40,0
0.007189206951405496,0.020219484856419584,1.0849347876008466,1.1894472598900945,34,20,66,34,0
0.007005292712831738,0.01937610874220049,1.0821482368565623,1.1333175441799612,34,19,66,36,0
0.006609362669402861,0.018111498776855826,0.968251403143829,1.097479026285392,30,18,70,32,0
0.0070264549332227765,0.01866354935705203,0.9917512497713532,1.1050085366497766,40,20,70,34,0
0.0069843726057211035,0.017749933259167287,0.9667110530841606,1.0972695105837988,30,20,72,30,0
0.0063448526144469245,0.018165262710790882,0.911282590058984,1.1087539875755843,30,19,77,32,0
0.007568110313932076,0.01832245224365459,0.9660832492359618,1.132554279492912,30,16,74,32,0
0.007143800320133001,0.018503981839502914,0.899834188199508,1.1029884834374617,30,20,75,34,0
0.006953478223026103,0.017552923048415776,0.8632157497454422,1.073710898279003,28,18,76,36,0
0.007154594031109692,0.018349928370876123,0.8932453012752535,1.1136788284813266,32,17,69,32,0
0.005983637195119689,0.01731286175760281,0.8193451525021611,1.086395898793211,30,16,68,36,0
0.006431612627612523,0.016945145651329967,0.8150087771444966,1.0705449333915176,33,20,67,34,0
0.0064269415391428495,0.016073510267579805,0.8407822435655905,1.014537213144199,22,16,68,42,0
0.006224828137299781,0.015593646399123227,0.7930388248255507,1.0027936159318562,31,20,68,40,0
0.007364341530554049,0.015518012726278608,0.8898406628194909,0.9849863093926157,26,20,65,34,0
0.0075548001975357,0.01623241536779185,0.8560057263998802,1.0420054924659095,29,20,63,32,0
0.006631682280176795,0.016104667922629254,0.7788146723873621,1.0311740791634478,26,18,60,30,0
0.006252035331237922,0.01691527538356391,0.7792599497460381,1.1388826997042651,31,20,61,30,0
0.006123984976068787,0.0176587766394171,0.7120114051968212,1.1490323420139368,20,18,68,32,0
0.0061464450691438785,0.016866395849967238,0.6904523162273162,1.115755178138201,25,18,68,36,0
0.005873323132414447,0.01620316810551919,0.7236800530738814,1.0807347001253178,24,20,67,40,0
0.007979786073028211,0.032662098811922294,0.7150060292070087,1.9399688009803653,28,18,61,21,0
0.00807017916101076,0.03429467213548746,0.6226844304066308,2.005016023361331,20,20,49,21,0
0.006666695684156347,0.029488071872744492,0.5194348192557459,1.6942576549448394,20,18,45,21,0
0.0038091135773540637,0.018054196653183998,0.3813957233601727,1.004163960174347,28,18,60,28,0
0.0038123139427732487,0.01813530026455447,0.3813288738525405,0.9977744753883185,28,18,60,32,0
0.0038792232449177356,0.017665673805417965,0.37785825173818094,0.9940267664465365,31,19,60,30,0
0.003930631146770727,0.01777327345968186,0.37432207623721453,0.9867271505470804,26,18,60,32,0
0.003977119134557718,0.017436028467016914,0.37337408633610963,0.9893952013667647,31,21,60,34,0
0.00405249983023863,0.017370693631706034,0.37462739831016706,0.9780489428432236,28,18,60,32,0
0.00036066647713565677,0.00042032140572734135,0.03543657262504947,0.051279460132109565,24,24,59,63,1
0.00047524852515923245,0.0006663484127399445,0.05428530218497068,0.0682505160454064,27,22,65,64,1
0.000896270901608374,0.0010437253372021491,0.10158237962242356,0.10265128502445348,14,16,70,68,1
0.0012105856599630464,0.0018500330024302284,0.1747603902980374,0.1808964446477376,22,16,71,58,1
0.0018280754029877655,0.0029466852394443364,0.2528850688935643,0.28081358593008543,26,18,69,57,1
0.0031811626666627666,0.004901552613519659,0.3869323303395784,0.41290045184743,28,14,64,48,1
0.003390966037722868,0.006779334265741311,0.4438317096127783,0.5447092687790869,26,18,68,39,1
0.003841522621007862,0.007387816976223228,0.4705107810939185,0.602521296183768,28,18,57,37,1
0.0038153050711653884,0.0071866241406040345,0.5000530528488554,0.5966552187312163,32,16,60,39,1
0.003116545647835716,0.005895034634673923,0.46098980698240993,0.5410245093835311,38,16,67,45,1
0.0032815945324226807,0.005533669296456017,0.46768366189420857,0.5116223880709738,32,18,66,51,1
0.003030676981448746,0.005208818752227097,0.45504467858652403,0.4901087723346646,34,18,75,52,1
0.0033988275727868784,0.005302962778206013,0.45007857056773065,0.4847011495510924,26,22,70,54,1
0.003727471642593825,0.005749644854547569,0.49003112224381457,0.5124722102017062,26,22,66,50,1
0.003324154996738729,0.005010578961452521,0.45414459710890676,0.4756666960863631,32,20,64,54,1
0.0037269292312894046,0.005375390068748628,0.4640524244468343,0.5017144365446822,28,22,64,51,1
0.003513947422077607,0.005667437655584779,0.4637187383859186,0.5050603129110586,36,22,62,47,1
0.0034143849011626748,0.005303305842075119,0.4132095600326017,0.5027077183257234,28,22,70,53,1
0.0036941727946586105,0.006041601172497984,0.4611074650992146,0.5361579097996393,24,22,67,48,1
0.0035396678491572482,0.0056141894057473805,0.4701979039579722,0.49685055970361525,26,18,70,47,1
0.0032157825004042505,0.0052992908242046576,0.4385904941256289,0.4842813561898706,22,26,79,54,1
0.0029467745702865932,0.005191399829311616,0.42322351995764007,0.448175689815086,24,18,80,52,1
0.002663830711175833,0.005008985325581056,0.38997017472562945,0.41000635750342274,30,20,82,48,1
0.0027528337807198305,0.00493589466245664,0.361891463302367,0.41144054371474487,32,18,82,56,1
0.003157529686930528,0.004337880140144848,0.38571974934746767,0.3655532488345169,32,16,76,50,1
0.0034451904239472895,0.004197256491506575,0.38632535056768713,0.3563072622232732,34,18,66,58,1
0.0032435262313434787,0.005048409371177631,0.342428526886558,0.38278947138039,26,18,67,61,1
0.0030367387868279107,0.004848014926628782,0.3498783019755115,0.35946022283826357,30,18,74,56,1
0.0029373424309153268,0.004945270105196183,0.370282871233324,0.37576005289880443,28,14,77,56,1
0.0027794015080802163,0.004995384194710444,0.3585992564573043,0.38616236009708843,26,20,77,62,1
0.002791853785031774,0.004704114989799069,0.368947740638604,0.3793319506232406,32,20,76,55,1
0.0027372329401957134,0.004368460791428338,0.3822070932609605,0.3718471279782147,32,20,76,58,1
0.002735342821887889,0.0042913181562723125,0.3554220079706778,0.39118107166837407,30,16,78,52,1
0.0026037673530613977,0.00465032938500979,0.36388465646154666,0.4211643036343948,36,22,77,48,1
0.0026333771462727007,0.004036448001569412,0.3988963268312123,0.38293755135254054,38,20,75,51,1
0.0029047916860752217,0.004342526468833327,0.3885003219591818,0.42382864167405593,34,16,69,53,1
0.00265248024112595,0.0039010820731918026,0.350612274878085,0.3922849310448922,26,23,71,58,1
0.002846435841199192,0.004462466200370283,0.36279478552352973,0.38520019092507946,24,18,64,52,1
0.002928109148022562,0.004460774970388174,0.34675163059614017,0.41278370734538555,30,20,64,55,1
0.0026784163121245323,0.0037667278385487,0.2929637822408526,0.35122749658416397,24,18,65,57,1
0.002561495980120303,0.003634051325612175,0.2732504851319604,0.3376958312762437,16,16,61,58,1
0.0021076153824170995,0.0029576871175949265,0.24515380490432573,0.2968386589833506,26,22,69,65,1
0.0019384288381229403,0.004019540517581682,0.24147156122011082,0.3699534740801398,20,19,71,62,1
0.0029221453389516264,0.005985692268708147,0.329358750646927,0.47957391421857126,26,14,71,59,1
0.003867325857924685,0.007160464445298828,0.4203818892646706,0.5613983313881353,34,12,64,53,1
0.003956735971084144,0.008746474327052459,0.44975707824427363,0.6516611501387913,42,14,70,42,1
0.004412379128365369,0.008664560749044686,0.5385171793476807,0.6511088848544038,34,14,66,41,1
0.004348954632163888,0.007571285756183143,0.5631326832880873,0.5979276961651089,36,18,67,45,1
0.0024550938437200493,0.0015503710793458975,0.4055635857644919,0.138535787394411,32,10,88,74,2
0.0030605263590259436,0.0016893492195518994,0.5586427225258536,0.17190860401081023,38,12,84,80,2
0.003751197250826627,0.0019068751009594367,0.6540112786079104,0.20391574277271468,42,14,80,77,2
0.004531274764407182,0.001399740471915796,0.7325600413788642,0.20972157863903634,38,28,73,91,2
0.004195449087252132,0.0010153219601723644,0.7165663741130649,0.1966246835087856,34,46,73,93,2
0.003849266952678376,0.0010703428368409559,0.6980399614630046,0.21054344770833056,32,46,76,97,2
0.0035324409324454125,0.0010724766681262448,0.6810004878845247,0.20335075333193228,32,32,81,99,2
0.0032684894032358664,0.0009866576297816014,0.6520482871546802,0.19765371112773353,38,42,87,97,2
0.003206479772728613,0.0009531971588728956,0.6111922160783563,0.19624360979419547,44,44,84,97,2
0.0031497997994207206,0.0009045247575662437,0.5791054924648229,0.18502416301042357,42,50,92,97,2
0.0031690500168124486,0.000952860513177254,0.5706012431944364,0.18099392097343237,40,40,92,96,2
0.002925512337481973,0.0008208147583036768,0.543710907966122,0.17693109732072623,44,48,84,96,2
0.0027614792353529037,0.0008899832260626185,0.533685583087385,0.19549273965276423,44,42,84,96,2
0.0028333461925758286,0.0009389579639177835,0.5508002356958276,0.19794804057427312,46,54,76,101,2
0.003075619936524396,0.0009819877174274073,0.5746067426545697,0.21004013881145264,38,52,77,101,2
0.003237775589262369,0.0010377486550812508,0.6358080691134277,0.2136276174850073,40,50,79,97,2
0.0031233294959253093,0.0009866125727112723,0.6088445166034601,0.20577207831218566,40,48,86,100,2
0.0028495451232251664,0.0010190763108409928,0.5704967919082402,0.20869098204937986,46,44,97,97,2
0.00267450478000373,0.0010224643792825098,0.5103734299873913,0.20905467255903354,40,40,97,96,2
0.0024256560321600402,0.0009609021932530843,0.4420507142481048,0.20866924939709755,34,44,98,105,2
0.00251627679501855,0.0009871739493978182,0.426372857358693,0.19868439189227202,28,40,86,104,2
0.002250573619677652,0.0008826481815909652,0.4037452220349091,0.1884775744370661,32,32,88,106,2
0.002221882590809767,0.0007876230795535233,0.40474188744833667,0.16661206105848006,40,34,96,103,2
0.0021146765027992846,0.0007686788162813613,0.38590392669744306,0.1592076994719868,40,38,89,96,2
0.0023204074528271885,0.0008283878185172573,0.4141802485642304,0.16276298369330985,44,36,87,102,2
0.0022381554481082956,0.0007720624618660508,0.39222646562766594,0.15469362338184756,38,42,86,99,2
0.001941512431113639,0.0007760415653945503,0.34971710660443706,0.16254171514114987,48,46,88,96,2
0.0018501665763956633,0.0007497887963144372,0.34094384097622005,0.1549603662975664,38,44,89,97,2
0.0017187868445117627,0.0006619928130885805,0.33536951061544307,0.14364496053785517,40,50,88,94,2
0.0018628002322147801,0.0007308974382947359,0.36357498521221343,0.14622989023045257,46,48,84,94,2
0.0019526516549841393,0.000700615191456591,0.35114394429657564,0.14259914508515575,44,46,83,101,2
0.0019506499613100828,0.0006625519096434704,0.3708548428449928,0.13536995591630274,48,40,83,100,2
0.0018999174780090621,0.0005916353969246224,0.35214575458077485,0.12366070492989938,38,44,88,105,2
0.0017438669801273755,0.0005612499724395047,0.32168776309228164,0.11977425000442618,38,42,96,100,2
0.0016244262137228916,0.0005904196326847629,0.3237070901834418,0.11900794727218116,44,54,89,100,2
0.0017304465598606516,0.000601601008956461,0.3123534806087292,0.12199021251217071,36,54,87,100,2
0.0016640295867448476,0.0005972650665977124,0.3003446960939885,0.12633325267495207,32,48,78,100,2
0.0015694011839057311,0.0005975705376554852,0.27204558074186574,0.12851684688743067,34,42,76,103,2
0.001592535244996662,0.0005698160159725498,0.265648065799558,0.12364533897525527,34,36,71,105,2
0.0015501726187448198,0.0006578382084555725,0.2125344376928927,0.10991146041421437,38,34,64,83,2
0.0016543536823229613,0.0007101749728962352,0.18683927194158145,0.09050496211854737,28,30,60,80,2
0.0019804600680831236,0.0006980602782265597,0.23787700109889995,0.0776155956967766,22,26,60,71,2
0.002402822943197436,0.0005713947798724027,0.32529630556546346,0.06042459045424092,23,28,71,76,2
0.0035423474978356147,0.0006067507030961044,0.49771559491264544,0.08417507625549593,22,32,70,77,2
0.0044572913482258635,0.0007153768287423581,0.6758983870993124,0.10896939903052463,30,30,71,83,2
0.005124403901176261,0.0007362816826153591,0.7665766197633731,0.12656456115568354,36,36,71,85,2
0.0052217964932637995,0.0008877683860077491,0.8617300299184475,0.15326187584042184,42,44,71,89,2
0.005442461187368571,0.000888918489571327,0.9816204710802077,0.16991091439718511,44,46,71,96,2
0.0004045309636620588,0.0005295308824620806,0.03409964461016182,0.06819097351416625,32,30,46,65,3
0.0004033423959128659,0.0005447834609276957,0.034006274443216855,0.0723808166958146,24,30,48,67,3
0.0004047720317591132,0.000576933236006609,0.03286012218333466,0.07505744013958063,22,26,46,62,3
0.00039083200826288357,0.0005581764548607846,0.0313696864545236,0.07065155985230226,26,27,42,60,3
0.0003983427699939844,0.0005217760708053212,0.0320177508707345,0.0720419766073663,22,30,38,61,3
0.00038867433750890015,0.0005786318391388152,0.03231810416049583,0.07229915228511441,20,29,38,49,3
0.000407539447553034,0.0006087665369424667,0.03573440555169242,0.07753169130638655,24,26,44,61,3
0.00041821892063788736,0.0007725873363533525,0.03912361263556106,0.11593701923679228,30,34,60,67,3
0.0004412213668564312,0.0016146639292077421,0.04537040961383565,0.20600522172899716,26,16,62,65,3
0.0004692959293683012,0.002530562464814019,0.056347943171395944,0.3864214351243543,24,24,72,68,3
0.000555606777261386,0.004047302726627507,0.06916200674784531,0.5474286607054223,26,24,82,69,3
0.0005872552429759862,0.005007666970467093,0.08268549106422692,0.7078495003311475,36,36,84,75,3
0.0006602155175830842,0.005198567092232535,0.0950348298451491,0.7686042161977388,32,42,78,80,3
0.000742492730767558,0.005037215215865578,0.09255380923901903,0.7432664731237465,32,40,74,81,3
0.0006868338587909753,0.004606901169226902,0.0941745104873998,0.7550994618621901,26,36,78,78,3
0.0006984630198947996,0.004177334039405822,0.0952669501640041,0.7567209037240178,22,48,82,80,3
0.0006454825842950527,0.004423624912388544,0.09147300091248943,0.7647247316636318,28,40,80,76,3
0.0008342991325235163,0.004410790909953038,0.10170608569346848,0.7600112154568344,23,46,76,74,3
0.0007851795523043513,0.004489566623337508,0.10003757185212502,0.7604855940163252,32,44,79,73,3
0.0008300872724902725,0.005127101605993276,0.10330725922575625,0.8280492256841759,28,42,74,73,3
0.0008800272746030575,0.0051439242756833,0.1078773893163343,0.8160939123540403,28,42,78,71,3
0.0007912254981231485,0.005028555973537474,0.10771965603897836,0.8089792495496549,34,46,84,75,3
0.0007838952670225017,0.004908255927050186,0.1080890995106573,0.7596563222451914,36,44,83,81,3
0.0007653204414914659,0.004917144905419459,0.10047201562645869,0.6349859850224936,35,36,85,82,3
0.0007765624216345507,0.004023702289684441,0.10230979201363317,0.591132706203774,30,34,86,84,3
0.0007331821773093334,0.004105502336312785,0.09912633218492271,0.6039305272661727,35,34,86,82,3
0.0008401534200218054,0.0038480944623571385,0.09657705050841112,0.5693192901101595,24,34,83,75,3
0.0007578682845627275,0.0037080421493609394,0.10076157872237695,0.5527044194225496,37,30,85,78,3
0.0007895289757073227,0.003199872668845553,0.09651124148062183,0.5522744014149982,30,40,92,84,3
0.0007183776141160637,0.0027152205199560612,0.09445454967923655,0.48928744781418715,29,34,83,85,3
0.0006748487101254895,0.0029639721535426725,0.09272932991188984,0.5073684535723731,30,36,84,86,3
0.0006934241317100357,0.002677180599947813,0.08429318568089636,0.4958471698913024,31,36,75,92,3
0.0007896140631382992,0.003142309639258533,0.08353663609537011,0.47892937071196473,24,34,73,86,3
0.0007416629467024096,0.0030782370675076854,0.08513850867510776,0.478912089829008,31,46,74,85,3
0.0006991470673985246,0.00268156663448877,0.08100367176492163,0.4193950894777153,24,38,76,87,3
0.0007978128438332395,0.0024875859747231473,0.08368426144021081,0.38574547183899627,27,34,70,82,3
0.0007111572321942589,0.0023090363667314703,0.07490783501729016,0.37405058140800684,24,30,75,85,3
0.0007413366538684288,0.00225997095274719,0.07137932941582717,0.34891803539693944,21,30,72,81,3
0.0006329294184037771,0.002105860981350048,0.07109977048249265,0.33564705480497453,28,36,76,78,3
0.0013788290281251403,0.0016622311678550258,0.09703414607466758,0.2668966537808496,8,34,53,74,3
0.0013994077220702492,0.001138565653346904,0.09296792447858593,0.1612711952744344,12,26,35,64,3
0.0012285786179087792,0.0007244167267551191,0.07408120205840274,0.09500604198119997,6,18,37,52,3
0.00044550971749173776,0.0004169169990174573,0.034326065237945645,0.035568649008723245,23,17,32,46,3
0.0004699098248830243,0.0007330312853037709,0.03694555306332586,0.07280416817638519,24,14,36,49,3
0.0005612571597243586,0.0011827227230172448,0.05146848971643205,0.13473102998440648,21,22,48,53,3
0.0007058469356205859,0.002385301163708448,0.06930826388278673,0.27166774111505687,22,18,49,56,3
0.0007806161485436206,0.0030992233779309846,0.0889264121307469,0.37552359699702603,25,24,66,62,3
0.0009384125669727872,0.0037109262035955348,0.12623579468834567,0.46290520018923753,26,26,73,64,3
0.005515761067171526,0.020536938581971125,0.5079160623044496,1.0948225630060942,24,13,63,28,4
0.0052997844430682775,0.019771754889423225,0.48057051673485435,1.0682647060070252,21,16,63,26,4
0.004847208609018037,0.02033576448982256,0.4299025733359095,1.0822585191818233,20,19,63,22,4
0.00461052124291231,0.020528040260890643,0.4166427311801765,1.1056512605079238,28,18,60,25,4
0.004673296821015728,0.020742071594835904,0.4228194473177565,1.1088167566168012,22,17,59,24,4
0.004983375551627952,0.02060122866842139,0.4403504499856666,1.1063770782191145,30,18,60,28,4
0.004775619967615508,0.021083905182803005,0.43801265326313205,1.1107773328840347,32,17,59,25,4
0.004867836929686167,0.020703565939973582,0.4458882093356714,1.1009892795741085,26,18,58,28,4
0.004759211510872267,0.021081734031963766,0.44987904348356267,1.110950930522858,30,17,61,25,4
0.0048362946284259785,0.021079908818660013,0.42638832153269257,1.1192519569032269,26,18,60,26,4
0.0045781139981011035,0.021560732404990023,0.4243122072568819,1.1226824496593921,30,17,59,25,4
0.004685655940066503,0.021440174126630365,0.4054841093206091,1.120192716698414,26,18,60,26,4
0.004479611260190561,0.021707946666287444,0.4036976985450948,1.1212868220010173,24,17,59,23,4
0.004537802705918434,0.021706673501360338,0.39522806115342773,1.1186650239970157,22,18,58,26,4
0.004370211388084831,0.02192538495871166,0.395298061997568,1.1207362894523911,26,17,59,25,4
0.004501231020416999,0.021957811561622225,0.3898925589533932,1.1197905445761756,24,18,60,32,4
0.004352390511087948,0.02195636082989173,0.3866054050124818,1.1165433069925195,26,18,59,27,4
0.004479403530562622,0.021946269322414055,0.3815213926282168,1.1160021539117495,30,18,61,32,4
0.004296035041544197,0.021997112724134044,0.38000208955697495,1.1149013095869789,28,18,60,29,4
0.0044194277625249105,0.022092050688912887,0.3808022373185965,1.1156336301823142,26,18,59,32,4
0.0042497383326827514,0.02197942435070169,0.383369303921543,1.1158998855332025,26,18,59,27,4
0.004362513155810238,0.022129377274294034,0.3836801086779469,1.1168801339051562,24,18,59,30,4
0.0042036418535931425,0.021945538979695648,0.3934293904433087,1.117068157427091,28,18,59,27,4
0.004277283674550901,0.022151241678748074,0.39400991407697633,1.113300227292076,24,18,59,28,4
0.00411854683661809,0.0218709532827266,0.39434589551066995,1.1075781660654855,30,18,58,31,4
0.004196675985504119,0.022061177945572604,0.3867170644037751,1.1044156540158845,26,18,59,24,4
0.004076939330125708,0.021686564944160488,0.37872749180536597,1.099998422989623,30,18,58,29,4
0.007327114200812905,0.034382836868329124,0.4929384288013396,2.0395522608583097,18,20,57,22,4
0.006993657031365326,0.033871839547959345,0.46564673476311136,2.0723416995259796,18,18,50,29,4
0.00555405671440948,0.025699905629601436,0.385120541763666,1.609112314420627,16,12,48,23,4
0.00399163157712976,0.017013989215874915,0.2669251653184759,0.955923293613449,14,6,43,21,4
0.0021707499985998647,0.007259513139853683,0.1639965576698956,0.4038065062428809,10,6,53,36,4
0.0009260189769182195,0.0005434688851679502,0.09423832014028831,0.07180222648293752,12,20,71,68,4
0.0008614056678679247,0.00047422273113309135,0.09209550300776531,0.0670242888623575,12,34,66,70,4
0.0007407431106825748,0.000554033810625702,0.07992734224809903,0.07072771299235459,10,34,60,67,4
0.000674099628468114,0.0005359605141227565,0.07791944608128543,0.06922213416015201,22,32,62,67,4
0.0006568609750911628,0.0005033436766081277,0.07773860217207346,0.06076901863453119,12,28,65,70,4
0.0006620589866946075,0.00043519566400548,0.07235913292812152,0.05779504165601775,18,26,68,74,4
0.0006942381095193377,0.000504364615593444,0.07600941836465645,0.0668211754103036,18,30,75,72,4
0.0007806811161011889,0.00048825384140507676,0.07799655239789856,0.06283472601429255,18,24,67,70,4
0.000745410239451527,0.0005213244060052936,0.07635463218551496,0.06588974007355791,16,26,68,68,4
0.0007360276173766482,0.0004969841581641058,0.07678043805803776,0.059883744194171126,24,28,51,64,4
0.0006961252504727011,0.0004111335539737739,0.07424432389858834,0.05181104060132341,16,26,54,64,4
0.0007143708001700153,0.0004378154355997578,0.0761953787254503,0.05182989976119649,16,28,43,69,4
0.0007215325018017737,0.0003697205125541924,0.08342963924823654,0.04823165985957746,24,34,46,68,4
0.0005887432521074799,0.0003793068619316267,0.06712457747089748,0.05062389588678912,26,34,50,72,4
0.0006724123435753453,0.00036080485108363217,0.0787741972155225,0.04685605413589996,25,30,54,72,4
0.0006186613286963543,0.00038180669395491106,0.06812641761704911,0.05008804497852434,24,30,62,66,4
0.0056321282044801335,0.018084590138843126,0.6761203726081931,1.1339262259467158,33,18,68,32,0
0.006118133626334244,0.01827473162865023,0.6860906649731029,1.1151624338992354,28,21,69,34,0
0.006222610998021184,0.018340950985810147,0.7531740502483295,1.1333901364460848,29,20,65,34,0
0.00662077068105659,0.018389970057905266,0.7344672286796269,1.1250194532236317,28,21,62,36,0
0.005709948645039562,0.018394274552468844,0.691632512635904,1.1439767617991627,31,18,63,32,0
0.005976380554127937,0.0182971692386242,0.6726502915231413,1.1170502143878855,28,19,60,30,0
0.005590618381877837,0.018120741974793686,0.6463589029537942,1.1120279478234267,29,16,65,32,0
0.005368356316974109,0.019278198000048402,0.6468122580151031,1.1225334610693358,26,21,67,34,0
0.005426177936690193,0.01835819154134631,0.6289124489365975,1.1088254053456053,29,18,59,32,0
0.007369115066404317,0.03231427584341775,0.6908959412879551,1.9580452039566354,22,22,56,23,0
0.007694040135718005,0.035166118229791994,0.6359116847019425,2.1086875393059317,22,20,63,21,0
0.006214808598681298,0.030868974365425947,0.5766320879113018,1.8727120628554914,24,16,65,25,0
0.00454994153138843,0.016923810697278233,0.5140051434450713,1.0468598965850437,32,18,68,36,0
0.005171886687294642,0.017250069938106672,0.6030252246116872,1.0437987217448959,33,16,62,32,0
0.005988301207508725,0.0174902781521637,0.6843223230824472,1.0752462806355456,30,18,65,40,0
0.00666157651352544,0.0169008926512327,0.7058884021280394,1.062844114369174,27,16,64,34,0
0.006677468432271321,0.01637788181342069,0.7717649349268649,1.032135722630763,24,20,66,32,0
0.007967956535332894,0.01856582376885739,0.8261646918176121,1.1183670087525284,29,16,64,36,0
0.008168733497363691,0.018224837895502617,0.8607544849533372,1.1363184673816695,24,23,66,38,0
0.008009841054212388,0.017416403598540246,0.9735293585517375,1.1592709019380085,31,20,60,34,0
0.008416778073377757,0.01794085535083493,0.9692618691466626,1.1296043212180193,28,23,61,30,0
0.008063048451994436,0.017591744152875597,0.8933411157468452,1.1241240926596536,33,18,60,28,0
0.008143016586192844,0.018774063322735835,0.8781420689556054,1.1342437575928015,28,23,59,32,0
0.006757774729385796,0.01789364663500086,0.8265005181950787,1.172237151520135,29,20,69,40,0
0.006908409427377653,0.01840340278705377,0.7969878480719685,1.2062650839378377,22,23,67,34,0
0.007110360109373,0.01948422418600391,0.8280584827315799,1.230427290936509,25,18,67,24,0
0.006839304510762689,0.019755879106514374,0.7771932885346938,1.251052792669615,24,19,67,28,0
0.006355886183151467,0.019512419542195052,0.7657590163486713,1.265536252913587,33,14,59,32,0
0.006670207447109051,0.019668327587253755,0.7691358803851349,1.203663717334904,30,15,66,31,0
0.006003962124421809,0.02025964559289956,0.7343663750520955,1.2627771684827418,33,14,65,28,0
0.005430085413942386,0.020268714707941594,0.6897394961903279,1.1817448764740734,24,15,61,34,0
0.005467653867693621,0.019575082438005403,0.655820284652829,1.1671298097287723,31,16,64,34,0
0.00573996655065999,0.020429500976510986,0.6489546073976508,1.1934606338621507,32,23,65,38,0
0.005804573594961793,0.01969086127011501,0.6898827469636682,1.1754496962200884,31,18,66,38,0
0.005401438381181366,0.020255623944946632,0.6543058491739447,1.1716297102362994,30,17,73,32,0
0.005633771077215343,0.019610180043882663,0.6626534836562651,1.14367153208305,29,14,76,38,0
0.005891474976635206,0.020130347577371314,0.6556058709181121,1.1249744967816602,22,15,63,35,0
0.00614931102734656,0.02094430183102606,0.6674040623400012,1.1577911918363237,29,18,62,29,0
0.006872629389849593,0.021598487610522698,0.7372466922473693,1.213488087066285,28,19,57,30,0
0.006995293863267923,0.021720923721535598,0.7021375797576858,1.2299400612854323,28,16,65,32,0
0.006401790393737152,0.021473351768322407,0.7146592731329068,1.1897798389635406,26,17,63,32,0
0.0061651197863279725,0.021376135556201093,0.657923548217148,1.1554724220899553,18,20,65,31,0
0.005883018588980351,0.021582021399073805,0.6236163110652845,1.2025915363775737,24,17,67,33,0
0.006139708605534185,0.02089563209765981,0.6201524598913019,1.20852328077309,32,16,66,29,0
0.006633461169330719,0.022289697195589292,0.6539600577010538,1.2617915717577044,28,17,61,35,0
0.007413382531911362,0.023106418602933353,0.6422386626037953,1.2966781610127067,15,14,59,35,0
0.005793234969087489,0.023387784867718656,0.6184149934336572,1.2788031815535026,18,13,61,34,0
0.0062274737058208825,0.02341331241113837,0.6460807258780793,1.3179729555221846,19,16,63,28,0
0.0058428442728132735,0.022142984124354198,0.6013597842737192,1.2362922965388659,18,15,67,34,0
0.002120637731215492,0.0033248149596850295,0.2940306172845466,0.38077881278451026,28,24,78,63,1
0.002085016781862485,0.003540344197506468,0.33086834931494064,0.3702387938571537,32,24,84,62,1
0.0017213215178183384,0.003199150496445248,0.27115103626102627,0.3374038778595596,42,26,77,67,1
0.0016721572610875158,0.0034140450391613435,0.24947518473592775,0.35961959327311704,40,24,82,61,1
0.0023451573219989354,0.003919856069099017,0.3150199451671042,0.3647563090815174,32,18,81,61,1
0.0023987189693365283,0.0036675939418460124,0.31055835932182113,0.35168416031914596,34,18,78,64,1
0.002567243981065654,0.004452643620119334,0.33904393488712975,0.3784484967381705,28,16,76,57,1
0.0027700431780963335,0.0036429061922194166,0.3738411335941075,0.3161249454344692,28,18,73,51,1
0.0024751642565927854,0.0033817463799277257,0.324886956984514,0.3148802519344214,28,18,71,57,1
0.0027509854791215793,0.003237695876512276,0.3443480395122306,0.32896536562269446,30,18,70,57,1
0.0027593930005585738,0.003799644527554838,0.3613763601309488,0.34150563036278586,30,16,75,58,1
0.00302122728434009,0.004659999904278826,0.39839042500409994,0.3940214502340145,32,14,70,55,1
0.0032833787707948507,0.006324820117054577,0.43591021830007737,0.42136121651392094,26,16,70,57,1
0.0037896623478746805,0.0064087624902177,0.4785133882464957,0.4793310635377104,26,20,66,50,1
0.0038564268646434285,0.005898574171284509,0.5142519527095509,0.5035204005110343,34,18,64,51,1
0.0039500011676879936,0.00781634428585394,0.4965661208662084,0.5676019577001711,28,20,60,49,1
0.004130343351027684,0.006935260111685444,0.5267797494583557,0.5624253103231175,26,20,64,45,1
0.004076322822064072,0.006960816335551542,0.5276310289768622,0.5538809463819894,26,16,73,46,1
0.0033400747941990457,0.0063434497748089905,0.46410264882284313,0.5141560002362296,26,16,72,47,1
0.003398914762010656,0.004365279213512881,0.47007967448999255,0.4269611128300307,26,22,79,57,1
0.003006055825689278,0.004196033164450017,0.4705672758405557,0.37790307156407965,34,26,70,66,1
0.0027333557101928935,0.004178363806300431,0.43977336719876614,0.4100676551173454,38,20,67,53,1
0.0027213465057899355,0.0038699109383331836,0.4469439526152127,0.372090286226526,36,20,69,55,1
0.002760487439770073,0.0043144526600408534,0.4192202248601163,0.38663970456106944,38,16,70,50,1
0.0025021778264552085,0.004377648009291545,0.3596310463823988,0.4169349185734847,30,16,71,49,1
0.0025109406245063344,0.0037544484695908515,0.3529060025052606,0.3689048872352866,28,18,75,54,1
0.0026531983111676848,0.00367639968269639,0.33208989677803846,0.35834007269636947,24,20,70,55,1
0.00218233908017444,0.003984835543308879,0.29140662437162107,0.35069280559814275,30,22,85,47,1
0.002371447690028825,0.0034685785260109812,0.31229434686667584,0.32709462257671573,32,18,84,56,1
0.002682141747590289,0.003758820344609718,0.3334365818413134,0.32338696167594017,28,20,79,53,1
0.002672239664876529,0.0045176560092643845,0.34374650976108223,0.35214324626329585,34,18,82,56,1
0.00275317307977445,0.004121937881484546,0.3727915364682622,0.33997427932078583,32,16,75,58,1
0.0031290224968680918,0.004297973401135912,0.4354583629935157,0.3653345609093008,38,18,75,57,1
0.0030623953308450014,0.004335550494517602,0.4275002989159442,0.3807603481807695,28,21,71,58,1
0.003125695048090944,0.004155215087756049,0.4607575735573499,0.3964039702964589,36,24,70,55,1
0.003240741023502885,0.004050999243111708,0.4801818686086934,0.3777042707905436,34,20,74,57,1
0.002816609499671255,0.004026070679005066,0.41930821972070453,0.3738803555233655,34,22,70,55,1
0.002899856053297869,0.0033666973471289992,0.46529757366510277,0.3290714287125768,38,22,73,62,1
0.0031244129189519406,0.004104615937354877,0.4789205650973945,0.3856872047950615,38,16,68,52,1
0.0032703838433734856,0.004992274491546927,0.4827578189479058,0.47372620191320985,36,18,71,40,1
0.0038491485442211167,0.006375710101725714,0.5474791072582844,0.5415549765403048,32,18,72,47,1
0.003757513635222696,0.0068677654844257465,0.5357316442962216,0.6186903199637521,30,18,75,41,1
0.003712381245395889,0.008916595514223843,0.5029103152735797,0.6792930562059195,28,16,76,42,1
0.0036186863165797896,0.009104029705816832,0.5160721294019951,0.6024261041053738,26,16,76,44,1
0.003634728552593669,0.008971328900560023,0.5450654791874912,0.6093245242596924,30,18,74,43,1
0.0037122426929850714,0.009586329602876456,0.5182148082445676,0.6341990692668337,26,18,74,40,1
0.004291354618276309,0.007356495995725503,0.6128350837568719,0.569678557230782,28,22,72,38,1
0.004504126408120492,0.007127642080167863,0.6188226769062121,0.5944151226148428,30,22,69,48,1
0.004074713651080689,0.006543352982275544,0.5313427788021876,0.5840200314398998,22,18,67,55,1
0.0023663031833351805,0.0009108922369157599,0.4218604187286463,0.17857099027604045,32,40,91,100,2
0.0021773199979829507,0.0009430717824831611,0.40002387979139314,0.1931291996876173,38,38,93,96,2
0.0019140775471061674,0.0008907606639174679,0.33127604535821853,0.17501779183680422,34,42,89,95,2
0.001806149415170738,0.0008395754106717547,0.3074246075894459,0.1755775013464377,42,48,83,91,2
0.0018681896562867297,0.0008079138222680338,0.3202082639338131,0.16783871967140665,40,52,88,92,2
0.0016846877293301868,0.0006951553181942684,0.3114401644097496,0.14681540543408056,36,54,82,96,2
0.0017996338402581113,0.0006851895493488054,0.33229476447439343,0.15552942759390082,36,50,81,107,2
0.0019329350630734518,0.000709195520047011,0.33615330271829674,0.1573921604378573,34,48,81,108,2
0.002016647623767371,0.0006777256406371619,0.34437313825991756,0.1447901911130239,40,52,74,106,2
0.002821708156567327,0.0009933514015521543,0.41607548904116115,0.15230959635720553,28,34,72,80,2
0.0038014109158468856,0.0010627704968077178,0.5400944029118316,0.14499905569970728,28,32,64,82,2
0.004796064584917721,0.0010198885771241365,0.6935422151781201,0.12706748913583496,24,32,76,77,2
0.005143486880234978,0.001028164919694561,0.7313797595393136,0.12063023348924312,26,22,79,77,2
0.004899961186872956,0.0006853312862277311,0.7538865445941854,0.11506193372952601,22,30,80,82,2
0.0043136075688226215,0.0007614323196271469,0.7277516805265849,0.13502829111443132,34,42,79,81,2
0.004036665445039941,0.0008537150814181141,0.711959825248317,0.15593711111070174,40,38,82,82,2
0.004207840211879613,0.0009700659207078612,0.7676937566490797,0.1804872409533178,40,44,82,78,2
0.004095475794211318,0.0009593164523369238,0.7541295076370375,0.19064046100168675,36,46,88,84,2
0.0039058121024500066,0.000907417222794646,0.7623152734769024,0.1839545586626264,38,44,89,89,2
0.003378804198911134,0.0008609052088987606,0.6480903266910746,0.18187571702792754,34,50,87,99,2
0.003453491529437266,0.0009727784136835504,0.6154686516788369,0.2009289943026157,38,52,90,96,2
0.003412570750856835,0.0010107923748892927,0.6289057239637965,0.22549702712897324,40,54,88,98,2
0.003067183258070146,0.001078603333043224,0.5631624877503146,0.24184938019742624,52,52,88,100,2
0.002836101468906193,0.0011298078260880845,0.5424048173233897,0.25110957267624917,42,44,94,100,2
0.002601563324149249,0.0010000811629930725,0.520361558986713,0.21993461602248204,40,38,93,100,2
0.002416915885395906,0.0008668168541873219,0.48586948306519445,0.19354930847944363,50,36,94,97,2
0.002267261127255752,0.0007710610200740474,0.45020271876742834,0.1670396289368897,46,32,90,96,2
0.0025642337902109457,0.000772726378592147,0.44181598262797406,0.1515089933248572,36,38,85,97,2
0.0020142999982669515,0.0006814359266076653,0.4096099895363043,0.13904194695536687,36,38,87,94,2
0.0017167320635113228,0.000632421612859159,0.33587352358090367,0.1293305019275066,30,40,87,95,2
0.0016487494038273404,0.0006473739875905627,0.3220363719877116,0.12810196835287788,30,38,98,96,2
0.0015626502954936372,0.0006099286656905404,0.2743605295220961,0.12418010715431567,40,40,95,101,2
0.001641070516217203,0.0005867127678110094,0.28119358310657194,0.13045417961904035,32,50,100,103,2
0.001633049293312791,0.0006572841967679567,0.3006386586182492,0.13242777159043984,42,44,93,105,2
0.0018290671709034318,0.000587723055600873,0.33191083869448146,0.12847076151838463,46,42,85,101,2
0.0019277651443793636,0.0005999526795884591,0.3507948885313621,0.12248196384436494,46,40,88,107,2
0.0021305352914680713,0.0005407628176490423,0.371035915536132,0.1175164936537665,36,50,83,110,2
0.0020019866259437954,0.0005193015960971659,0.35697075285324703,0.1109754014224048,40,46,84,107,2
0.001842847267785194,0.0005530798629045945,0.3429259752075384,0.11112082469755179,44,58,82,107,2
0.001923248814321378,0.0005269084798051863,0.3502767284184652,0.11352836489805207,46,52,78,109,2
0.0017687568743538792,0.0005354936671289564,0.30655339966722567,0.1093106798184084,42,46,83,101,2
0.002094874289234416,0.0005477124997114871,0.33791561074577087,0.11719220076452526,38,48,79,98,2
0.0018463885358868612,0.0005603269318746422,0.31399694881412676,0.11703571638887049,42,48,85,103,2
0.0019671612433332596,0.0006245421627436178,0.33146670995105115,0.13143809464939224,44,54,89,101,2
0.0018676857479534021,0.0006094114424721948,0.3274707487294175,0.1369304228398903,42,56,86,108,2
0.001875798436467499,0.0006095362440465401,0.32573239656637093,0.12859211095039208,44,46,87,107,2
0.0017184795869144454,0.0005789728487655494,0.3139451078407311,0.12211547679988022,36,44,90,109,2
0.001604278196107599,0.0005410608896525516,0.27989575418762264,0.11443783041272622,38,46,91,110,2
0.0016569551011799111,0.0005534625439719838,0.2856718713892177,0.11932201634642355,30,46,84,111,2
0.0009007160921723742,0.0034796297173732473,0.11423697006524873,0.5159523742933166,27,40,74,72,3
0.0009506887130691564,0.003706314807312697,0.11492878660968327,0.529130241833036,26,32,71,78,3
0.0010854875366013489,0.004260195623309302,0.13245763272213174,0.576919032021498,31,32,67,75,3
0.000977454121622685,0.004142727411119499,0.13238495921920193,0.5794000741782512,30,34,75,73,3
0.0010286227254015466,0.0041746558861712555,0.1309230765618118,0.5814214357514762,25,34,84,71,3
0.0009655680589723457,0.0036812592917388814,0.12771203802784376,0.5516967511698277,24,40,71,83,3
0.0008333164202493643,0.0032503286691499857,0.11041484479645967,0.5015477816829599,27,32,80,87,3
0.0008540435932989998,0.0034005214468846873,0.10638913337786958,0.5663838064681456,22,34,77,81,3
0.0008359120929463367,0.0030949865969811196,0.10179761900086685,0.5135309877702294,27,36,70,81,3
0.002423584797044953,0.0025778827234493396,0.17213448823999075,0.41987781350960646,12,26,58,65,3
0.0024810185483027554,0.002068388795627726,0.16420441720890497,0.3097771135204378,8,22,47,57,3
0.0025392671194254396,0.0013273870162490223,0.17256938813594166,0.17552123254532426,8,26,55,60,3
0.0007504330942102298,0.001012676545739094,0.0906265250783419,0.12418101614711989,20,26,58,57,3
0.0009222936620542745,0.0015742741339350827,0.12460604534230038,0.19653666209495513,25,26,74,71,3
0.001127102502903021,0.0020219008590390245,0.15983985890023533,0.28402422973887015,30,28,82,76,3
0.0011064515471798971,0.0022658276711679656,0.15674167885160398,0.3295640776486912,35,32,80,75,3
0.0011698078911559328,0.002682776538826363,0.17410536348431224,0.37655637299500516,28,24,79,72,3
0.001174610902477094,0.003026923009323369,0.15256374587306562,0.4112336006670222,31,24,74,72,3
0.0010445144358830905,0.003201441251522174,0.13861360069564682,0.4149453501489613,24,28,70,73,3
0.0010656185780692146,0.0032669627338817115,0.1484810432409818,0.4184874644700094,35,26,77,69,3
0.0010594540585040187,0.003638663792456409,0.1470492703744008,0.4540104750312373,36,20,80,70,3
0.0011792883967181721,0.004012242036018864,0.16522639199130226,0.5149387873714909,41,28,78,75,3
0.001228688933909196,0.004093921473876453,0.16000356669421692,0.6019897179542716,42,26,84,75,3
0.001159763042064396,0.004897112103058926,0.15605112961945783,0.7314547701447127,32,30,81,76,3
0.0010672623849553899,0.005301107541463015,0.14211373906636848,0.7964094019670946,32,32,83,75,3
0.0010105936280101363,0.005339750938931659,0.14470881351727385,0.8000020927929369,29,34,86,73,3
0.0009329700043996705,0.005226550664183268,0.14891731509705072,0.7298787485543231,32,28,85,76,3
0.0010200974511607639,0.004697135394538702,0.15204200518150193,0.7258162590057882,31,38,88,70,3
0.001103343332833285,0.004454127708722982,0.14531874267508044,0.6864127550232038,26,36,80,68,3
0.000979340761608776,0.0041816853340527795,0.1350054081642253,0.6610267634731055,33,34,84,74,3
0.001047511521264268,0.004468644184658306,0.1441105127772499,0.6867512072081968,28,38,77,80,3
0.0009635520187290759,0.00404873994914038,0.13128985948894717,0.6161159540750061,31,36,79,71,3
0.0009862444518424,0.003903171314603461,0.13699815382422814,0.5732650131813879,30,32,83,78,3
0.0009240849495842398,0.003870748557053769,0.12821518861270687,0.5655289614339728,36,36,80,71,3
0.0008429810407811069,0.0038495838733841737,0.12270730050911574,0.5174232252890729,38,30,79,76,3
0.0007937450863632423,0.0037117068066835983,0.11908953643200813,0.5322774952402168,37,36,85,75,3
0.0008063097224992643,0.003491454048984478,0.12117553762307377,0.522324812039179,36,34,87,77,3
0.0008559613891980195,0.003254942405262083,0.12748017241063445,0.508340451784505,39,32,85,77,3
0.0008138093029383892,0.003558378996668747,0.11924824619536145,0.4936846551317016,40,24,84,72,3
0.0008413577250906926,0.002884892430281223,0.11627528756831024,0.44792052629372553,39,28,86,77,3
0.0008585568959280276,0.0028114757335317843,0.10674411469871573,0.46743223663318023,30,30,87,78,3
0.0007955762200412787,0.002875369054882377,0.09563855346083794,0.43479945939574033,36,26,86,76,3
0.000821758014215555,0.002689370111755385,0.09980969616471952,0.4412228827829491,26,40,88,77,3
0.0008722561338930913,0.0030013648083603893,0.09991538401098732,0.45024301472715833,27,38,81,72,3
0.0007853484781956342,0.002881525283387014,0.09580424716103285,0.3939837505884867,26,34,75,70,3
0.0007948067817603545,0.0028091738407841514,0.10159612644195165,0.41304925652859636,32,38,84,69,3
0.0008999254325831552,0.0027320817999478457,0.10244656271498442,0.383891411180305,32,40,74,73,3
0.0008213674125046802,0.002598783406069596,0.10337120858004821,0.3743370545142174,36,38,83,76,3
0.0007421186217603069,0.002459078504409137,0.10138615614152469,0.3826889369146103,38,36,88,78,3
0.00048132131604196776,0.0007902068440197537,0.04254466327470159,0.06223428431821633,22,18,41,51,4
0.000466250013643202,0.0007078004312852204,0.04252360284074916,0.048872203687114216,24,16,42,48,4
0.00047189566942169484,0.0006311406359165087,0.04190153998412594,0.04952727130825702,24,16,46,49,4
0.00046470988236979095,0.0006655553023976529,0.038310794182044056,0.05239524139004148,26,18,40,50,4
0.00046560669808010037,0.0007171310280294184,0.037457894471215274,0.0554869846166001,18,20,49,53,4
0.00045328146401052666,0.0006590442227715939,0.03742205157814348,0.056115983028759926,20,20,44,53,4
0.0004570735019403301,0.0007655107196961757,0.037878998516473396,0.06268738752894211,20,14,48,52,4
0.0004418664463742279,0.0007177492403324312,0.03682966185104558,0.058088012180703634,22,16,50,52,4
0.0004496183585305292,0.0006726737555563374,0.037597331609311245,0.05046118581010437,20,16,52,48,4
0.00045141804409624107,0.000572170226308299,0.03740728256902997,0.046239909489860356,23,16,50,48,4
0.0004574202279420892,0.0004274320206804981,0.03757254190099668,0.03589830460365062,20,18,44,59,4
0.00045377477607041957,0.00038009496892301006,0.03747313014223201,0.032050839520204336,25,19,44,57,4
0.0004604553810517355,0.0004153341690003555,0.03692924342186194,0.03662450297871837,20,22,38,56,4
0.0004650179230663571,0.0005391610347950233,0.037149945771791426,0.046450045416583964,27,17,38,49,4
0.0004909521298418779,0.0004728120101725181,0.03814910614047171,0.045159768554588794,24,20,38,49,4
0.0004846382318613948,0.0005223250935621326,0.038427412708299837,0.045319605444426904,21,18,40,52,4
0.0005039726240092476,0.0005241889443521767,0.03909279467480297,0.04167452751715021,20,14,38,56,4
0.0004912901440117266,0.00038266263178269894,0.03859891817183641,0.03440516007304597,25,18,34,58,4
0.0012954851827477578,0.0005467669600141039,0.09203204710992718,0.05070690237079605,8,20,27,60,4
0.0026249104543066637,0.0012553359029384048,0.1640666553309693,0.17655055149281496,8,14,23,61,4
0.0027377361028748264,0.0018618675535554618,0.16855863937870094,0.2948450396105379,8,26,43,67,4
0.002076614272826587,0.002592818175742007,0.136441162205348,0.42734778725074163,6,30,54,73,4
0.002015395556415096,0.003346170936945939,0.14908648558094753,0.519000112872792,3,34,64,80,4
0.0007854913084566002,0.003072000512363163,0.09328071910138327,0.48995573630252054,30,32,74,84,4
0.0007316283088975496,0.0032434273710324757,0.08888860491632754,0.4681230407418213,28,38,81,81,4
0.0005965269739303769,0.00254961985809988,0.07665389162788568,0.3640589853003093,28,26,76,85,4
0.000557243449204834,0.0022078745807310764,0.06662950590078726,0.2980037729814113,31,26,74,74,4
0.0005245452025477193,0.0014572329015074858,0.06006455506347583,0.21778637259105557,24,32,65,78,4
0.0005200818103344673,0.0008709275733077293,0.05317683470191884,0.1333324684108737,33,30,56,82,4
0.0005745185436976233,0.0008959999369246713,0.04952547679122103,0.1338022359631698,22,28,49,76,4
0.00048238204339017205,0.000742676261673379,0.04395699888850014,0.1237824959093226,25,29,48,80,4
0.00048657823443627827,0.0008057521425185669,0.04018877561452194,0.11996686165304297,22,30,50,77,4
0.0004824323103918219,0.0008961824891390227,0.04097528522593216,0.1347099926645699,29,32,50,78,4
0.0004903225649429436,0.0008337313677585406,0.03904291889591079,0.12463761457797609,20,28,52,72,4
0.0004844816647820165,0.0007103748595459935,0.036755694657398544,0.10909886852703932,27,32,42,76,4
0.00048426656089332746,0.0006358286247937663,0.036690620383280186,0.09954576377829129,18,30,42,72,4
0.0004947245985015251,0.0005686644186074729,0.036567599433598275,0.07782505512317985,21,25,36,67,4
0.0005159112505088502,0.00048180562888109653,0.036803525151869604,0.0675628871701187,18,26,32,62,4
0.0005167602567518392,0.0004067563123110284,0.036837779758644267,0.04592654427659422,19,21,34,52,4
0.000520609813267481,0.00041289726733571776,0.036741899484217556,0.03941472677323422,18,20,38,58,4
0.000534790050059535,0.00041848854514900917,0.03704169240602371,0.03739994249706285,17,19,32,50,4
0.0005335823662774169,0.0003499511391660511,0.03729237953003284,0.028877244215172435,18,18,38,50,4
0.0005431931077946609,0.00038351936261918714,0.03740086609397449,0.03164025438898081,17,16,38,51,4
0.0005434154626307989,0.0003555797577503367,0.03732074744589412,0.033725707726448534,18,18,34,52,4
0.0005526444684683673,0.00038567871802397814,0.036953767363863285,0.0321645336537337,17,14,34,52,4
0.0005520106608205498,0.00037702829158988067,0.03654208284009228,0.035720283036774075,18,18,30,54,4
0.0005587186944431613,0.0004045314010528241,0.03638494147983681,0.0380859962653178,17,23,34,49,4
0.0005442399619933953,0.000364736060220156,0.03648911675034363,0.03545815058512271,18,20,34,56,4
0.0005571820139302902,0.0004264501628522143,0.03701759429503276,0.04151524679874338,19,25,34,51,4
0.004018914355581383,0.017076370582072644,0.377785538723856,0.9842064173033325,25,21,59,32,0
0.0041691127690447515,0.017011933843341577,0.3889690326295813,0.9718672798277435,26,18,62,30,0
0.0038127699203451782,0.017221426451597376,0.3978211038743415,0.9993884461776162,27,20,58,32,0
0.0047583005396292155,0.017243729623992118,0.433145738916494,1.0358250391959312,26,16,62,34,0
0.00606361640675897,0.017353293630032532,0.5235329599452199,1.1417858223243937,25,18,65,34,0
0.006530602583004499,0.016671007629398816,0.6897060050288076,1.1454207730464923,26,16,70,32,0
0.007779719956900703,0.016104742941564314,0.7740034666813419,1.1268692112459853,29,18,75,36,0
0.008552957193102638,0.016060378649396707,0.9785262918151847,1.1130816107913186,28,18,72,36,0
0.008850818586760333,0.017270896663575657,1.0071215397721223,1.2010048019699162,38,18,67,40,0
0.008423704280595351,0.018318137902272113,1.0059102833972968,1.282462685677036,30,18,66,40,0
0.009033519495694317,0.017909156234297733,1.0456013153343824,1.2653306279845933,36,18,72,36,0
0.008332015520945778,0.01774737912617207,0.9708661012352154,1.286733720166168,32,18,72,34,0
0.007974602615573239,0.017723089651852476,1.0553177505152858,1.2792812761077879,32,20,63,34,0
0.007732846206772586,0.017720124508800287,1.0220678527554767,1.220485713759672,36,22,63,40,0
0.007693488691538481,0.0181271876766486,0.9693030197240617,1.204866644355616,31,18,65,34,0
0.008282177844172128,0.018222031068033384,1.03988113301554,1.146553523258784,30,20,55,34,0
0.007381757919446564,0.019029808563817797,0.902998795113677,1.1802025228378825,27,18,59,30,0
0.007709877265873244,0.018762048231833407,0.9461549241462013,1.159950164657312,28,18,56,34,0
0.0076561818525172284,0.018202835279267908,0.9692454759365501,1.1786312525657128,30,18,58,32,0
0.006804683116073093,0.01715644759479649,0.7717231258534181,1.1464175417221365,28,18,64,30,0
0.007413172765309022,0.017382908279430575,0.8398929004521455,1.1389219115736673,27,16,61,40,0
0.00664929290743722,0.017321631170423575,0.7601001940311743,1.1162244443556013,32,21,63,32,0
0.0059980478575869176,0.017173245750289726,0.6770518527956542,1.117027908614495,35,18,71,36,0
0.00622598515890415,0.017759154783442588,0.7226839994650125,1.1065891688568252,26,21,68,36,0
0.004481572383107388,0.007586890705418575,0.583101112305264,0.602450914175997,28,22,70,46,1
0.0044914005633233285,0.0075926150456198695,0.6020351616352526,0.6532780820241875,30,30,66,46,1
0.003875721553493505,0.008742616043490472,0.5386860512913608,0.6536702693062432,28,26,76,49,1
0.0038184264418834202,0.008632917702866196,0.5368818656904185,0.6381458878394544,32,26,73,47,1
0.00365753167711587,0.008648978315042475,0.5010265032800773,0.6096037698821722,30,16,76,55,1
0.0035335324192701727,0.007223112573465994,0.46579057488519304,0.5121393808091893,30,12,72,52,1
0.003766088067807661,0.005753246806893371,0.48260452498139345,0.45164955253664657,30,14,68,55,1
0.003995164903073196,0.005779960428352477,0.4674261222595909,0.47361649164862335,22,16,73,52,1
0.004049771676818054,0.0045728406369364176,0.5558727669273137,0.4434121693153587,32,20,71,56,1
0.0040190971819401315,0.005144604079187435,0.5817688112632848,0.47402777527859935,34,16,73,56,1
0.00430591469837647,0.005091397896150404,0.6114772183794276,0.47315773745884687,36,18,80,56,1
0.004062057821360015,0.005290360290194116,0.5933163890628091,0.45425220248690745,30,14,71,57,1
0.0034387215857587024,0.004953532936134306,0.4974221781481657,0.47632637361775837,38,14,78,53,1
0.003389450354596979,0.004112447773492142,0.48168346302356774,0.45124554221402047,36,20,85,58,1
0.003597624198996248,0.003988631347870823,0.44228035587895814,0.4462189337400135,32,20,79,55,1
0.0034595919573483314,0.003801632941927947,0.4468789835887978,0.4165175182101849,20,24,72,67,1
0.0032343566825309583,0.003755493559627337,0.4338380675811076,0.3861599597403607,26,24,74,66,1
0.003734993970061336,0.004074756158612829,0.48299643124840813,0.39126859990343577,26,24,74,59,1
0.0031366435188985163,0.0043856646413297715,0.45692728638319136,0.41167840418511814,34,22,81,57,1
0.0029607534066267024,0.003914177252437714,0.44652743480887036,0.39497741947850795,22,22,80,58,1
0.0032159339011376908,0.003782057269457249,0.4836754683534493,0.38698176700692977,26,22,79,51,1
0.0022810476486521147,0.0034101949259577984,0.36869819212304766,0.37061649701464705,30,24,78,55,1
0.0024960484131798513,0.0032657766331603433,0.3991120176212764,0.3617658953479895,32,30,74,57,1
0.0023785156805722456,0.0032293662541560773,0.3687634554755751,0.36485637122437037,34,26,79,64,1
0.005111565984855512,0.000958632327472315,0.9863669346230801,0.19760006683696932,46,52,81,101,2
0.005378383472054196,0.0010236407805069173,0.9886699464949499,0.23058839370502626,42,54,87,100,2
0.004975311320406368,0.0011187583300994752,0.9306139248820288,0.23685621133426424,42,50,87,104,2
0.004696400771823732,0.0012554979469944383,0.7987146036384697,0.2649035778217347,44,48,93,99,2
0.00459353102755565,0.001190613062094182,0.8098330268651971,0.26051481014423844,40,50,87,99,2
0.004589513883382657,0.001213332390730312,0.8185164190773239,0.2646794785961785,40,48,89,96,2
0.004709005590667112,0.0012106107409254197,0.8660329385424911,0.2841794353692027,34,56,92,96,2
0.0050961391939324755,0.001224785201743321,0.9418244606696198,0.2883621635668289,34,56,93,100,2
0.004960204781305425,0.0012586560619520474,0.9441818371813756,0.29783245142181486,32,56,91,103,2
0.005232416579749392,0.0012631404979704514,0.9144240254551301,0.29808304609466657,36,56,85,106,2
0.004797712694595703,0.0012691901742054015,0.8739018968408325,0.2991393577384715,36,44,86,110,2
0.004737383724929744,0.0012917325430874809,0.7961910665474363,0.2969400157208713,40,44,79,105,2
0.004035639614097735,0.0012533858960489196,0.7138648253027704,0.2795158449776763,40,40,79,104,2
0.003865443879384391,0.001290478420877435,0.6729417229377487,0.2606206446485263,46,40,82,100,2
0.0037748222821503722,0.001193131009111753,0.6913578640121404,0.26193358158719793,38,44,80,99,2
0.003875982389408591,0.0011474261458368073,0.6847281572267165,0.2440983784655928,36,42,84,105,2
0.004031130622530389,0.0013195758603339813,0.728610489403702,0.26518861945521455,42,42,86,99,2
0.004245344829381925,0.001266683894373884,0.7602023419164972,0.27269989877776074,42,50,85,107,2
0.0042161901571441465,0.001163135052923917,0.7056999441794247,0.24756752366215676,46,50,80,101,2
0.0042491598143195915,0.0011595481503548124,0.7076941658238772,0.24355691003413904,38,48,80,100,2
0.0036827487984514118,0.0009832337524518407,0.6369192547867888,0.2169570257384838,42,50,82,102,2
0.0032612828574340997,0.0008965156598306867,0.5596203627746676,0.19031808468411193,38,42,82,94,2
0.0030741866128923333,0.0008645876076627422,0.5461002487561974,0.18969875032510192,40,44,85,97,2
0.0026707845586600404,0.00086043201215529,0.4950796906780957,0.1811941046651251,36,38,88,95,2
0.0010744012689381966,0.003992291169484496,0.15257873042492107,0.5143754783634944,26,30,82,64,3
0.001243636786225727,0.003558938392982715,0.166794242001,0.4679550086281714,22,34,75,67,3
0.0011841465104661256,0.003020279671466692,0.17067883933844125,0.454207268017952,28,40,73,70,3
0.001202257881888258,0.00294704505232514,0.16805686593036695,0.42397565698985346,26,34,75,74,3
0.0011539755132844837,0.003176542628004114,0.16433958463812437,0.4482338502270571,31,34,72,77,3
0.0010418120112321463,0.0035422209466464466,0.1634033606980822,0.46180101904762816,36,24,77,78,3
0.0010921297189690124,0.0037961035782670734,0.16412335595047317,0.4906560629786213,40,34,83,85,3
0.0008971037064835091,0.0038051290607064954,0.14933753346281844,0.5075795440602323,40,30,87,81,3
0.0008379372739165479,0.003517316680754328,0.13362170852669464,0.48729004631098893,34,28,89,78,3
0.0009045294815653676,0.0029911391703374758,0.13513630696344042,0.4783936354016501,40,32,85,78,3
0.0008174547686359913,0.0032141376662267545,0.12426148442068279,0.48851071466457957,39,28,88,70,3
0.0008136093802700307,0.0030825329663865544,0.12720970310985288,0.4679764768384937,34,36,79,70,3
0.0008649579043679302,0.0034623700461277086,0.12381517179069816,0.5116669465407723,35,38,82,75,3
0.0008381791901438305,0.004065269810471721,0.11726624515359885,0.5952959804012288,26,42,76,75,3
0.0008603015187764972,0.004074698854212214,0.12245438528222873,0.6031988269344674,35,38,76,74,3
0.0008349666708059748,0.004139398075919108,0.11559844367638841,0.6103011495495415,34,32,79,76,3
0.0008307257601078793,0.0038488053102454286,0.11024014034829613,0.5802230917908584,33,34,72,80,3
0.0008436537270798109,0.0035480508365079272,0.1140108756581584,0.504138521030268,28,34,70,77,3
0.0008780166594499388,0.0037327579843565296,0.11172375825672906,0.5165471037762124,33,30,74,80,3
0.00084708396167192,0.00362634517538058,0.11552114206537603,0.49611944708844186,36,30,77,79,3
0.0008691052327159547,0.003437844446568172,0.11131912938855158,0.5088737415444741,31,36,80,77,3
0.0008305164252865622,0.003561497931414708,0.10807628597700673,0.5216800209279451,30,34,84,72,3
0.0008273418363932723,0.003236843043884156,0.10145547207500509,0.49374005911757574,21,36,88,73,3
0.0008144168819232207,0.003436934286432814,0.10026799791717332,0.506078562219416,22,36,83,75,3
0.0005644914370250904,0.00035017904526188934,0.06091045938577342,0.04732808588508421,22,29,66,76,4
0.0006075963094217228,0.0004298289511266224,0.06905045841660355,0.05215527586210246,28,30,63,67,4
0.0004998263525152986,0.00040413840722363146,0.05617013418468476,0.04959055172110265,28,32,60,70,4
0.0005129777773689695,0.0004582048966845383,0.05898298803562389,0.04847241477723918,28,22,58,74,4
0.0005325221196124018,0.00038315356845294586,0.05651602955406108,0.04788064107757862,25,26,57,68,4
0.0005225726863143197,0.0003004874240314021,0.0533500271550791,0.04152540968487759,28,24,57,84,4
0.000519255533002496,0.0003375882008776791,0.05511927768241383,0.04256821660444528,31,29,60,75,4
0.000522501346591599,0.00038810968135906886,0.05228206384567147,0.04394875929612733,30,22,58,67,4
0.0005437439448914503,0.00034852912454491717,0.05718192139276355,0.044208688835128594,27,25,54,73,4
0.000618434617460803,0.0003608265520752503,0.058873652590486346,0.046438041070735694,24,24,55,73,4
0.0007447005801403527,0.00045407944746428614,0.06437699972511339,0.05002718403984978,24,22,45,70,4
0.0009264932604972726,0.00044975176352533353,0.06985801680219704,0.045247952301231145,22,22,34,65,4
0.00098598969624603,0.00046009866412721425,0.07222795013886178,0.046238107757564,16,20,33,68,4
0.0007607941092271747,0.0006120279081671839,0.05854184510190468,0.05040575259685917,18,12,38,68,4
0.0006761234071180075,0.000632615854598787,0.0572531323996291,0.05016627879161149,20,10,46,55,4
0.0005925523234416932,0.0006042159088549291,0.05375911468285798,0.05023159324568819,20,8,56,67,4
0.0005743195323980304,0.0005598840365297404,0.05409415180334001,0.046962877089781564,23,8,56,73,4
0.0005606714600790765,0.0004357447729344605,0.053244050589291644,0.04651117009395402,18,18,60,70,4
0.0004781107624040583,0.0006544454318097233,0.04518792905405424,0.06367332318349082,22,12,56,70,4
0.00047526670460259617,0.0009236183741812779,0.040936315202317254,0.08069915506463951,24,18,52,61,4
0.00046529339907231196,0.0014706756291866768,0.04027345258156826,0.11476139497806756,22,22,50,48,4
0.00046875639710080983,0.001735853840840733,0.03936885349738393,0.1262376179567389,22,18,48,42,4
0.00047967258147267665,0.0013610888059892156,0.04004540674858533,0.10524419561048884,24,14,48,43,4
0.000489458619294286,0.001271520935376007,0.04273642963454345,0.09642201760810128,20,16,48,39,4
