f1ch1,f1ch2,f2ch1,f2ch2,f3ch1,f3ch2,f4ch1,f4ch2,Category
0.001206055204277388,0.001690814036025826,0.12044091712996882,0.14829870954989385,14,16,63,41,0
0.001821470887107482,0.002455776396236878,0.19301003139160633,0.24886664115905677,17,18,71,51,0
0.0024582260731245177,0.002997404603006842,0.2964177375938495,0.3146216772264221,22,24,69,55,0
0.0027903440091018206,0.0029772744908006456,0.3556242134609321,0.32670939190953785,24,24,64,55,0
0.002643095289092888,0.0026959136920146785,0.37202872525406466,0.3140308561501357,24,28,67,57,0
0.0024208084469702833,0.0022907389332415666,0.364418536357092,0.26304345462556356,30,26,75,54,0
0.002288697485389518,0.0021200218806973698,0.3454329667256055,0.24723552141606048,30,32,73,51,0
0.0022967183808485668,0.002358563883332771,0.33382128155272167,0.2554676380369578,34,28,70,62,0
0.0019962658348173404,0.002199858159452558,0.28930973206329674,0.2488346873182293,34,28,68,59,0
0.001751276551190371,0.0021283212891876264,0.2633693594162219,0.23327448496141137,34,22,73,70,0
0.0016123937309213343,0.0019696716933286017,0.22960195015766652,0.22630299394245507,30,28,75,68,0
0.0013761369286726863,0.0018573442210835511,0.19614482926115348,0.20134727314667172,40,28,80,64,0
0.0011907016713039499,0.0016874065009420097,0.18506151505907661,0.19008945241002864,38,26,90,66,0
0.0012848901287984694,0.0014766876744026678,0.19804722616563022,0.17752229673046674,36,28,84,66,0
0.001331693611793422,0.0016917974601982724,0.19995452218838602,0.18870677542490838,32,24,80,64,0
0.0014025781245425829,0.0015641307526318823,0.2226397522661794,0.17167436124195137,40,28,72,70,0
0.0015738481219143773,0.0015374791166275102,0.223486322601767,0.1754942331919943,36,24,64,69,0
0.0013193655552202633,0.0015109423326203088,0.2107890832963843,0.16891481437709308,38,24,69,74,0
0.0012496184101286128,0.0011388497375635495,0.19273369542344965,0.15160716763748475,30,26,71,80,0
0.001050923695233066,0.001173736737009826,0.16315350786604615,0.15934261670652988,30,32,77,76,0
0.0009882188116277283,0.0010487954920217165,0.1566113640812599,0.15103783634351386,28,32,83,74,0
0.0008398901108164609,0.0011630137288963596,0.13901034206507568,0.15223176525269885,38,32,83,73,0
0.0008098677436332072,0.0011318140566853564,0.14494965899291531,0.14638967695794447,34,34,80,68,0
0.0007921943550435819,0.0010984778018546578,0.1388779532878154,0.13945815050433388,34,32,81,70,0
0.0007374590797146866,0.0010222250013803287,0.12440863235672384,0.13025082583198677,30,28,80,71,0
0.0008504219261916107,0.0009187380740930242,0.127171675559435,0.1266610077574352,28,32,86,73,0
0.0008693170695576527,0.0009630752892519901,0.12083227242609612,0.12073938214188477,28,28,80,70,0
0.0007791459436034294,0.0009120182548126206,0.1112526075125029,0.11498767253030669,28,24,81,77,0
0.0007960876222485744,0.001027168301125561,0.10746894421776128,0.12320934148052903,26,28,76,68,0
0.0008078653950017463,0.0009426999266911978,0.10599285028913916,0.1142563929832129,30,26,74,73,0
0.0006888671797306761,0.0009491560468703999,0.09506117284355045,0.10878207543365298,30,26,75,77,0
0.0007755596849308999,0.0008818250410554064,0.10717765531335963,0.11192140797457607,30,32,72,77,0
0.000778476352892517,0.000800026270579389,0.10681899941578356,0.10602410132520124,20,34,73,77,0
0.0008225648497408985,0.0008708113785159176,0.10320993049132174,0.11162976211775931,22,36,72,65,0
0.0006951346728721179,0.0009016439089579012,0.10420365606210816,0.11517357885684053,28,32,71,66,0
0.0006374564656961285,0.0009328243710205827,0.09359034276464848,0.11272564597283946,26,32,77,64,0
0.0007053920365072918,0.0009291805828550773,0.0921052938497537,0.10883930759516496,26,22,75,63,0
0.0005738986926061068,0.0008103197633418499,0.08507453302431121,0.09929232329083487,32,18,78,71,0
0.0005459299185518348,0.0008447100633429043,0.08419671733065215,0.09498027427209282,28,24,73,69,0
0.0010994531606342828,0.0011653864430914737,0.15762401810332946,0.13827480749497417,22,20,72,72,0
0.001357780027063418,0.001459376868600103,0.1922198244843458,0.16919981113238045,20,16,72,64,0
0.0015690267530516788,0.0017052512309977614,0.23021057234716424,0.196981514998955,28,24,76,66,0
0.001699875295764878,0.001826073726032528,0.24811428076693676,0.20203144089748395,28,30,76,65,0
0.0013748567620004367,0.0017532334540092253,0.20976979887936503,0.17136767801148395,34,24,77,60,0
0.001295686724886526,0.001626201759006975,0.2020489060181213,0.15303862812233437,38,26,73,69,0
0.00127599032542972,0.0015226526171388723,0.197880992500245,0.15796393772167328,26,22,78,62,0
0.0012332755385189964,0.001615374132041315,0.20119163118199407,0.17265328369049376,30,24,80,60,0
0.0012306269708217729,0.0014032028956951857,0.1865722197213915,0.1597127903946267,30,28,85,62,0
0.0025678513709886525,0.003306509829773087,0.3121718453147852,0.302658882307332,20,18,58,54,1
0.0031678686145865196,0.004874521361213713,0.37272237946891285,0.45512955701416424,28,18,70,58,1
0.0034760103124865426,0.0053931875719325385,0.41369237744809656,0.5460438208986076,28,22,69,52,1
0.0037438763983418627,0.00587053785116177,0.4573127892390449,0.5960827564606687,26,22,72,47,1
0.0032745600339562897,0.006171790749258982,0.4100696983483689,0.6218781782427258,30,22,78,44,1
0.0031304211917268735,0.006450168214337721,0.4076515344509208,0.5831744336372846,28,20,72,52,1
0.0030293836833605614,0.006174355819364992,0.40704210303339,0.5651093442996763,34,22,70,49,1
0.0029839269313096466,0.006572836028133855,0.3887856462302187,0.6031774246561651,34,24,67,44,1
0.0029238647005368256,0.006433689843049118,0.39905718831806203,0.5628861505424124,32,22,67,45,1
0.0032250476755311674,0.006144720645045066,0.41573969502878716,0.5196465344929655,30,20,66,52,1
0.002989945986095899,0.00601436589799037,0.4078883544976414,0.5063710962759665,26,20,65,47,1
0.002516620159910096,0.005466887822794274,0.35503346439904887,0.4899933138162459,28,18,74,56,1
0.002566578364268696,0.005001576431000188,0.34239182663920215,0.4895816235521157,28,26,78,59,1
0.002332153323672462,0.004543425684284114,0.33409014358445227,0.44607896962707144,36,24,80,62,1
0.0022676445432019006,0.0043898586349463255,0.32137706683631034,0.44879927006239706,40,28,79,57,1
0.0022714676181767378,0.0037669572394630584,0.3363377145790447,0.3781597326904952,36,20,74,64,1
0.002050222492428837,0.003810737487827872,0.30905283232775466,0.3554143007758695,36,20,80,59,1
0.0018995171416665338,0.003811857320316485,0.28705469469348943,0.3586577660408989,38,20,75,53,1
0.0018106884121775655,0.0035927331112404776,0.2690697964272416,0.32993094210427626,34,18,77,53,1
0.0019451116778619424,0.003950090449568876,0.26216808088014076,0.3444268139865998,36,18,75,47,1
0.001888713930647225,0.0038902224605145996,0.2622226697214554,0.36064611436873584,32,20,67,43,1
0.0018448813178123052,0.0039084627952038235,0.2599995161237772,0.3574402033811913,32,20,75,41,1
0.0018806941081558396,0.0036989237560517184,0.25246078005588163,0.33500816014879414,36,22,71,48,1
0.0017464065128490614,0.003646131354695636,0.23634420944566786,0.3276423631385841,32,20,71,49,1
0.001728494318221506,0.0038126036059816177,0.23095619191921715,0.3413293583253777,30,18,67,49,1
0.0016188117254686673,0.0034654811358375433,0.2255687042865819,0.30377448841068394,34,16,67,50,1
0.0016379484421432937,0.003805536565946836,0.2277410607240628,0.3436430565746156,34,20,71,46,1
0.0016192077410594554,0.003454844414064952,0.21656931369414842,0.3045911932647935,32,20,72,51,1
0.0014339029618967742,0.0028054269960894464,0.1908919036809551,0.26892656136934323,26,20,74,49,1
0.0014966411781154446,0.002944200777744293,0.18962664534985807,0.2669274759112767,26,20,73,54,1
0.001410533465266256,0.0024630179475172436,0.17459324744304466,0.23497912151751743,36,20,69,59,1
0.0014650956169517024,0.002832090710442212,0.18130904897296138,0.2655251421844376,34,24,65,55,1
0.001487232689265281,0.00340451857752445,0.19804014027444708,0.3000377097100973,30,20,65,51,1
0.0015082732114094929,0.0032645512671672485,0.19209688427788932,0.28914472013518927,28,24,72,51,1
0.0014009775449233413,0.0036580549537819067,0.1983081907354884,0.32919602398713804,32,22,71,46,1
0.0013936717400597994,0.0037179965176453956,0.21321761236363027,0.3259061907931517,36,20,71,40,1
0.001302165200929775,0.002870874864292139,0.19448950179866054,0.27167353742472555,38,18,68,50,1
0.0013876093567107613,0.002642076229478987,0.176324409738481,0.2488232874863367,28,16,73,50,1
0.0011601923425453374,0.0024328300303556438,0.15897592726540455,0.22517855794606295,30,14,69,56,1
0.0014014269561203458,0.00250680468142132,0.20615643759707006,0.24177394478596617,24,18,66,64,1
0.0019465114796815982,0.0031845083426005542,0.24632068604765325,0.30309348768506283,26,22,67,62,1
0.002282157128980392,0.0038548599711776665,0.3011874524520745,0.3535679873280668,32,22,69,55,1
0.002446799808463425,0.003916850283813296,0.31942200854611524,0.3438010526528494,36,18,76,62,1
0.0022284660780022354,0.003938832644376448,0.28306325313159053,0.3418967561660434,30,18,74,54,1
0.0023434869271462266,0.0033574095446255907,0.3136642191131045,0.3130901792905293,30,16,66,59,1
0.002448786412771655,0.003666029618304746,0.3209267263973289,0.3204300278123319,30,18,62,49,1
0.0025347197653778457,0.003956045355006707,0.3276650906156921,0.33302956949223994,28,18,64,46,1
0.0026467662988786094,0.0033673904069709115,0.32262609697257444,0.32068696183399054,30,16,68,51,1
0.0025744100888832272,0.0008146417741619297,0.2842861577800338,0.09450969647802725,20,30,37,74,2
0.003092612039080051,0.0007135101411623389,0.38385476099982696,0.10285797336338265,26,38,47,78,2
0.003804815779829597,0.0008007811397469995,0.4703525501592505,0.11772738257560433,30,36,56,73,2
0.0033214605533800627,0.0008710853073623208,0.46163092155815855,0.13072480661358432,40,40,64,83,2
0.0032826595402384007,0.0009400232050465166,0.4207594289228882,0.1279497495831218,34,30,67,74,2
0.0031171283025137127,0.0009791828929236327,0.4164484262868674,0.1250262627465538,28,30,65,76,2
0.002813103829647246,0.0009511120319941401,0.3858949903078907,0.12218589312169632,30,32,69,77,2
0.0028614191081258174,0.0009115610248570552,0.3883870005028868,0.12345854146729472,28,38,67,71,2
0.002864206646371141,0.0007867677648138978,0.399296722559164,0.12562634568289613,30,42,64,77,2
0.002651920693179899,0.0007774413328416512,0.3629278173234493,0.1192340702823786,32,42,66,85,2
0.0027107542172718825,0.0009286803152124368,0.38248330574324535,0.12442350741998195,26,36,65,84,2
0.0026077362534633556,0.0008730873016919938,0.3797604440778096,0.12075272121427304,28,36,67,83,2
0.002421001615971758,0.0008408817831494907,0.36417511575119343,0.11448728112632289,36,34,65,83,2
0.0024054539490571156,0.0009027161507892985,0.38480061231006224,0.11632051496048657,34,34,65,73,2
0.0022077230856710366,0.0007195762007323841,0.35878667358088145,0.10520551903499059,40,38,69,78,2
0.002079924473153252,0.0007629287863143119,0.3600294161761672,0.10359743951294997,40,34,73,82,2
0.0020830243309670547,0.000823389470276352,0.33972655267396823,0.10504909235063659,36,34,79,77,2
0.0019889017945642937,0.0008480724852014561,0.326339490843122,0.1076592177604997,34,28,78,79,2
0.0021484448288264985,0.000900151619237526,0.3287186938205763,0.11410945468064812,28,30,73,76,2
0.0019247893809157194,0.0008611329695875724,0.27698531956316913,0.10728222744800751,30,24,74,78,2
0.001809309527572355,0.0008360421386394458,0.27037761793620274,0.10408866432427712,28,32,70,82,2
0.0018124547710910445,0.0008773969809535683,0.27209322975392985,0.10648228166324361,26,30,69,76,2
0.0018483711517117377,0.0010669054605265563,0.2691687491510123,0.10717964764456199,28,34,70,77,2
0.0020607037406259214,0.0010097857781008774,0.29514130624233714,0.10703491721335254,30,28,67,76,2
0.002076944695956913,0.001046819688046097,0.28762616304161487,0.10371089658355617,30,24,65,72,2
0.0020902810221816296,0.000836506481053568,0.2909363617502148,0.08947884526145655,30,24,59,75,2
0.0018668722582524016,0.0005623055463839224,0.27589342385484017,0.07580447333367288,32,30,61,83,2
0.0018246450951220363,0.0005886235867257451,0.26429334753907474,0.07839136431179973,36,32,62,85,2
0.0016663356191915148,0.0005776319319777506,0.2608634845102572,0.07156783284624195,32,28,74,85,2
0.0016783499485717465,0.0006336543844357722,0.2560516525503111,0.07986318507991373,26,26,76,83,2
0.0018670217745639197,0.0007481465002959518,0.2754783934819828,0.09237605780600416,28,28,73,77,2
0.0017303090605544187,0.0008324235549687571,0.263513001686768,0.09857830510273896,30,22,77,78,2
0.0018464858427553012,0.0009131058836575741,0.28816685767999634,0.11346651798091922,30,26,70,77,2
0.0017946721270198254,0.0008718027638903027,0.2793154161362085,0.11328297169959398,32,32,76,71,2
0.0018771657125481215,0.0007986604696168173,0.281839500922277,0.11070316082475314,30,28,68,77,2
0.002096196797749521,0.0006783768641289335,0.29305313781620057,0.09783476502718629,38,30,62,79,2
0.001954537178237824,0.0007199498018217301,0.2730847287768674,0.09352785772627993,36,28,63,86,2
0.002053501521105605,0.0008405471049997846,0.2753918759147026,0.09967071308053689,38,28,62,77,2
0.0020423091020524893,0.0008934467360376807,0.2608634878239381,0.09643431037562618,28,26,71,79,2
0.0021611413459110378,0.0008954029322658819,0.29188966669125604,0.09954120100009117,26,30,70,76,2
0.002976217177225884,0.0008163086341247308,0.38357106201073404,0.10510577819842744,34,36,65,77,2
0.003564061177032933,0.0007614826884604205,0.473418841114381,0.11226325073519379,30,34,62,77,2
0.0037244042941499554,0.0007602472759319041,0.4998100756043951,0.1203827823643232,28,38,60,81,2
0.0036572524907233076,0.000780043915931044,0.5023157580494245,0.12862999325563365,30,40,63,81,2
0.0033004758596146804,0.0007432304237162124,0.4485775139615467,0.12514549691231466,32,40,66,85,2
0.002965937070132013,0.0006500886925957744,0.4072764938074927,0.11229784420779766,34,48,69,89,2
0.0027224578284144093,0.0006077907893659516,0.3947931755367351,0.10422477105187813,38,36,68,90,2
0.0025060815129383275,0.0005506900306995466,0.3670293344102382,0.10020004322243968,30,42,73,93,2
0.0004893614759011967,0.0034860815664369176,0.05771280077825249,0.35850843035060537,30,20,65,61,3
0.0005709309059726405,0.003484467454772644,0.0681842016369662,0.3910298102496982,22,22,67,66,3
0.0005837575020695493,0.003314601881468425,0.07272444460978594,0.39026010649421,30,22,66,65,3
0.0005603730010345611,0.002808515236829853,0.0717451183993641,0.370451358307487,28,30,72,68,3
0.0005326713002766942,0.0025155993361058184,0.07231719999208039,0.35720902640523067,36,28,73,67,3
0.00048452231420026485,0.0023267924389398314,0.07167634654440129,0.33987611818970864,32,30,78,70,3
0.00046891532547336276,0.0020617042251736104,0.0719931018764544,0.3268477917548945,34,32,76,69,3
0.0005100437556395592,0.0021365788915522826,0.07382942052721256,0.3423818823013783,32,36,77,71,3
0.000495497094926972,0.001886355414572558,0.07428574847015361,0.3212088758443446,36,34,82,75,3
0.0004895859741669025,0.001871372185799412,0.06994321246580788,0.31076485177786384,34,38,74,77,3
0.0005273875542959644,0.0019948700780893606,0.07254226179929185,0.3087249124650849,36,32,73,76,3
0.0005228549010904239,0.0018627611025784283,0.07268776023525049,0.2999424080018406,32,32,73,80,3
0.0005701832498833628,0.002076274793625841,0.0764955161591347,0.33274542569233256,34,32,69,82,3
0.0005904562946886556,0.002316770499902416,0.07739701295576411,0.36050547433815655,30,36,77,77,3
0.0005104749689862239,0.0023665063865779047,0.0736361912405108,0.377578086347377,36,38,74,73,3
0.000526597390968275,0.0024124113244735033,0.07577837861769986,0.37210088509067923,26,36,75,69,3
0.00048503959926933624,0.0022799100770555343,0.07241776312185466,0.34547774889424554,28,38,76,70,3
0.0005217757235598391,0.002101403266836513,0.07268271821505451,0.32894238983390967,36,34,81,70,3
0.0005057070145863513,0.0019951704477303585,0.06865956308745608,0.3126574102598255,32,36,79,72,3
0.0005103738212236026,0.001847219142085423,0.06382255671102555,0.31861198353319536,36,42,76,75,3
0.0004859743806103045,0.0017446753117173045,0.06023580362351503,0.30501401853518584,30,44,76,75,3
0.00043749649952949096,0.001983311694394506,0.05530838538613493,0.2985056765034807,32,40,79,73,3
0.00045241188833568334,0.0019673112772575115,0.06034414904071166,0.30776376666989347,28,38,74,73,3
0.0004503424716060457,0.0018658528463812497,0.06074046568027331,0.2932378517779512,30,42,77,75,3
0.00045955381183381856,0.0018650368846387416,0.06081083853203053,0.29169139058136645,30,42,73,71,3
0.0004610794211008738,0.0017817837730189363,0.06234027144207942,0.27117121197510646,34,40,73,77,3
0.000404065846829749,0.0016567625262404336,0.05892382142252506,0.24310191178114088,34,38,81,71,3
0.0003877474584652155,0.0016559734928233282,0.05849862198058248,0.2359285940950187,30,36,84,66,3
0.000403948363955502,0.0015720048119737223,0.057990450606145216,0.22818537965329405,30,40,85,78,3
0.00040017863430552423,0.0016257956964926751,0.05702683124091158,0.2321337389820651,28,38,87,77,3
0.00041084729310667765,0.0015816610597176885,0.05604808481797588,0.24244767606808243,28,36,76,82,3
0.00038580521838597464,0.0014222645750584797,0.05485389052542678,0.22522466644152309,34,34,75,80,3
0.0004195082439061261,0.0015039167712895443,0.05508658133101003,0.23434263894497384,34,34,72,80,3
0.0004464525532137341,0.0017001110346072323,0.05459879830811075,0.2663404007214183,29,44,70,78,3
0.00045381355707950504,0.0016051161947815752,0.05616651717619444,0.2519629978590396,30,36,72,78,3
0.00048410252141480357,0.0019044076779776828,0.059217397474882444,0.27768134527073807,31,38,75,82,3
0.00043566678624959844,0.0018684602910300331,0.05837129702952334,0.2741329045697102,28,40,76,76,3
0.0004106045877639335,0.0018178329621716205,0.06043093849721375,0.259304005540384,40,38,78,76,3
0.0004111782189146408,0.001839335800780621,0.05912726855038298,0.26514904634873804,36,28,75,80,3
0.0005710120367212488,0.001703535367992546,0.05953221231116589,0.2457342032235332,22,36,69,78,3
0.0006819060757542064,0.0021168607256765912,0.06054201971939691,0.2746037229956534,24,30,60,76,3
0.0007493608433704367,0.002630440566333593,0.06683022177758725,0.309543748504112,24,24,49,75,3
0.0007681964344229254,0.0029585185769271556,0.07146807698667887,0.3204949829303908,20,24,53,72,3
0.0008012936511191092,0.0030931392931557206,0.07765929853532791,0.34889777787897935,22,18,49,69,3
0.0007106616309755433,0.002864325900868295,0.0765344722337936,0.35855902943121404,24,24,63,70,3
0.0006425821492483934,0.0025007939390026346,0.07506209918442387,0.3586147020099547,32,26,69,70,3
0.0006294484604576099,0.002305302008917229,0.07698137446385975,0.365403174334986,26,32,68,75,3
0.0006089801842463024,0.0021753930329525143,0.07426679123306718,0.3631955032220935,23,32,73,76,3
0.0002738640763638795,4.7144465862512515e-05,0.017269283712689838,0.005749938772234564,18,28,22,89,4
0.0002733106171177032,5.010851930885904e-05,0.01726204953024828,0.005912562932582004,20,25,22,90,4
0.00027377741741155433,4.730864763328908e-05,0.017383262755012355,0.005417438603418475,18,24,22,84,4
0.00027281347601962704,5.1203367568262906e-05,0.017432711293836493,0.005728911341154539,20,27,22,76,4
0.000274598464292404,5.001001805789215e-05,0.017494814255291063,0.005508727376814049,18,26,26,81,4
0.0002742633610337581,4.650713872322243e-05,0.017583632977908974,0.005655403106902397,20,37,24,84,4
0.00027509765986411655,4.870935786204336e-05,0.017570730967822412,0.00583143929623971,18,28,24,72,4
0.00027541319736010624,4.4359680570738084e-05,0.017622546908458988,0.005183636857579365,20,39,24,78,4
0.00027540688711334634,4.686047029373479e-05,0.017506916685036497,0.0052266428575428086,18,26,26,72,4
0.0002756028927362128,4.907586226991168e-05,0.01758778649385075,0.005865558702226947,18,23,22,71,4
0.00027664167411913106,4.9706111765053275e-05,0.017631760233077543,0.006142321650687224,20,24,26,76,4
0.000277313032877818,4.6565201380691886e-05,0.017780189828683002,0.006129382750888236,18,31,22,73,4
0.0002772675536160514,5.1270573783100225e-05,0.017966241754716436,0.00687280914240023,20,28,22,73,4
0.00027834687936633887,4.897629620264751e-05,0.01789312057215409,0.006152906910964871,18,25,26,80,4
0.00027857227270857625,5.1685446069639936e-05,0.018090409260964564,0.006216563155658614,20,26,28,78,4
0.000278582734102093,5.4845481466005005e-05,0.018002328795783427,0.00630245989471774,18,21,22,83,4
0.00027896484513484853,4.8695663238529e-05,0.017876420368170404,0.006106710980824176,21,30,24,82,4
0.0002801042105224603,4.985720989883198e-05,0.017791464552105687,0.006404308637806054,18,33,22,74,4
0.0002807420077080073,4.875132555420201e-05,0.017709128928737744,0.006005431067352725,21,22,26,73,4
0.0002817351285600966,4.543896052540464e-05,0.017789700663307186,0.005868952244203847,18,35,26,74,4
0.00028535187224511727,4.7279287662065235e-05,0.017950578339516226,0.005972075331597971,21,32,24,76,4
0.00028800496177345343,4.7382019592323005e-05,0.018184447225371735,0.005735088048853776,18,34,24,81,4
0.0002909536510471283,5.359231175625378e-05,0.018223579495739762,0.006190295753768906,21,26,30,88,4
0.000294060844932465,5.3923580203646214e-05,0.018114104297711278,0.0061576269746006366,18,25,24,82,4
0.0002941132386851678,5.2556477026366056e-05,0.01824569622301477,0.005571623522264957,21,26,28,84,4
0.00029739474941244674,5.525660801158132e-05,0.018257985660995735,0.005866732268474525,18,26,30,80,4
0.0003010439018048471,5.188068898480738e-05,0.01810507499262632,0.005213407600559393,21,26,22,79,4
0.0005008833529131229,0.00011822102271078546,0.029260172881179995,0.008737306715489073,18,14,21,76,4
0.000606769004060347,0.0002671368568316575,0.03809882632608892,0.015674454786418976,17,7,23,39,4
0.0006989003681130567,0.00025893780838290087,0.04173102005926438,0.01601830627252011,16,8,23,48,4
0.0006243132539471001,0.00020321529663690677,0.036159643953945456,0.013594179519082332,18,10,22,62,4
0.0005376047953258574,0.00018357924649089785,0.029763596624247168,0.013020872429036046,16,12,24,68,4
0.00033654010318367886,7.358149210602512e-05,0.019297921362632742,0.0079027829655008,18,30,28,75,4
0.0003368918478159376,6.147247666100592e-05,0.01942895752665378,0.007365510022024345,19,20,26,74,4
0.0003373213370325643,6.340507993557519e-05,0.01941646723878114,0.007295877265790312,18,25,34,71,4
0.00033924974763665996,6.747714146138841e-05,0.019470199726113815,0.007971149739848955,19,24,34,83,4
0.00034025144118581175,6.738552509285367e-05,0.0194618963123515,0.007895637308495561,18,27,28,83,4
0.0003439675827761352,6.684447019339815e-05,0.019504204306831675,0.007442174083011319,17,24,28,83,4
0.00034448834331942747,6.574831846725267e-05,0.01966191665115447,0.008086607510769344,18,29,30,79,4
0.0003476559682065245,5.8569798398180814e-05,0.019654155887042793,0.0069706664944733055,17,26,26,81,4
0.000348972149546741,5.4002789524451245e-05,0.01978101508561186,0.00724926829336579,18,35,26,92,4
0.0003518461186660529,5.387055030925929e-05,0.019763367766898153,0.007093166240382456,17,30,24,85,4
0.0003520966917447905,4.954830604581284e-05,0.01986839759159939,0.005652240069842986,18,27,22,83,4
0.00035477830718109814,5.535758197305639e-05,0.01992259249656964,0.00751941684470498,17,30,22,82,4
0.0003536414755018601,5.7227899824838955e-05,0.019908463522647475,0.006971027426869244,18,29,26,82,4
0.0003584396989245329,5.3944250112416174e-05,0.01967915432386504,0.006612839898479704,17,26,22,82,4
0.00035625133483872687,5.796022807738027e-05,0.01963712435566697,0.007791817474819301,18,21,22,85,4
0.00036109421523117366,5.230198075007772e-05,0.01953916911742319,0.005610861669649696,17,20,26,79,4
0.0004854624773774069,0.0005375981691920864,0.06206989062102152,0.07141962449253426,27,28,80,71,0
0.0005208569125447312,0.0005262195611021105,0.06658662649001433,0.07137152531887805,30,28,80,72,0
0.0005919775112454136,0.000714811709165553,0.07993267252937229,0.08076700642671615,33,24,80,69,0
0.0005958644558772456,0.0007400711951603476,0.08137979250626622,0.08403875496550713,30,24,79,77,0
0.0006423699477413573,0.0007976640752477285,0.07840979193343312,0.08282588010366046,25,24,74,73,0
0.0006063562766589998,0.000840699887094485,0.07299071812255514,0.08268377012745164,22,20,66,67,0
0.0005902728614659319,0.0005885336045594238,0.061326986210605984,0.06687114335769366,23,22,69,79,0
0.0006321923646939612,0.0005833901063349166,0.0733113804537684,0.06827034059897269,26,28,63,70,0
0.0006204392212223427,0.0006202351581767049,0.06620207906973723,0.07433845237536994,25,32,66,71,0
0.0006792154802657496,0.000684723138298771,0.07761302631436405,0.0809233330560108,22,28,73,76,0
0.0006881246073247756,0.0008255414859221165,0.07328651783715147,0.09257958360442504,22,28,79,68,0
0.0006328539453619081,0.0008032450564005374,0.07102213126799904,0.09502457498337274,18,30,88,68,0
0.0006160186898779207,0.0007869272026077537,0.07580833650723369,0.09435658031487884,28,32,92,74,0
0.0005872587534863392,0.0006649291015359436,0.072017095969802,0.0808103554343175,32,32,84,69,0
0.0005808516288186651,0.0006192659461084717,0.0757610644164106,0.07394015345717432,32,28,82,78,0
0.0005473849957683018,0.0006274548007636915,0.06981808992735883,0.06734752017748374,24,26,84,76,0
0.0005529244882299569,0.0005752707009835838,0.07696489130978172,0.06457203447882068,24,26,82,81,0
0.0005257432613403072,0.0005378014783026523,0.07166799765261779,0.06635540917910368,24,32,84,80,0
0.0004935014882693051,0.0005662870307204981,0.07246310344673053,0.06833540802368876,30,30,86,78,0
0.0005003960069001466,0.000585168641982201,0.071284659615272,0.07062021902614937,26,32,74,77,0
0.0005160835002341668,0.0005992268307541019,0.07175201232929017,0.07165318517461564,26,30,69,79,0
0.0005399809005150489,0.0006142122622910409,0.07234878303745892,0.06976397770903517,20,32,69,86,0
0.000557826277113664,0.000602196570824412,0.07190351978088041,0.06898261146409738,26,28,72,86,0
0.0005553523419026441,0.0005198133519916159,0.07473844795123048,0.06135255304592046,26,28,74,87,0
0.00046604805583691636,0.0005648500750937011,0.061979638775086526,0.06440067906226862,28,28,76,81,0
0.0005230595596130337,0.0006324882472832132,0.06839482830714952,0.0696683499717834,34,30,64,73,0
0.0004633422201230752,0.0005653859500051682,0.06767216000759446,0.06698718162775015,36,28,73,76,0
0.000520622465967395,0.0005957551764755848,0.06953016697430943,0.07159542156109731,32,30,72,71,0
0.0004967151358386973,0.0005779797673372959,0.0739158956659733,0.07209829552269878,30,32,72,77,0
0.0005020199004690778,0.0005351863442634103,0.07111028179362472,0.06954109965667835,24,30,74,81,0
0.0004804421512315522,0.0005980218219401404,0.06816594141302197,0.07049968397322233,22,30,76,77,0
0.00041169379642036973,0.0006015839038643201,0.06104890404910168,0.06854760472036835,28,26,84,79,0
0.00040114237698363745,0.0005601882552119373,0.05865002031048851,0.06331583322079658,34,26,81,78,0
0.0004040069670710395,0.0005409717629146245,0.05884880570235286,0.05839014564960101,32,22,84,80,0
0.00044358255327219513,0.00047566031920629663,0.054309129815122606,0.05546281336008147,30,28,80,79,0
0.0004292293170495919,0.0004552057363559784,0.06248588159541112,0.05506574955794989,34,32,76,85,0
0.0003908276539029768,0.0004115389080531631,0.05460573417416556,0.05322934857424227,34,32,80,88,0
0.0004037091292437041,0.0004779152701737357,0.05662684970537175,0.06267103101674558,38,32,72,81,0
0.0003844559229680735,0.00046297780865958905,0.05296169514168439,0.06639737991519995,28,32,72,79,0
0.0003976223405217616,0.0005167151941960206,0.05140278803658211,0.0690352830082638,28,28,74,72,0
0.00039789793047736397,0.0005330707347186802,0.05181669864608083,0.06772284834445942,30,22,81,74,0
0.0004192859005789737,0.0005303363362815939,0.04832631917390778,0.06590576105759734,22,24,76,76,0
0.0004206165681635887,0.0005970341634704444,0.05041229931641558,0.06715464750948277,22,26,81,72,0
0.00040394592362811015,0.0004798908924820716,0.04913321349287205,0.06484739422065379,32,30,81,76,0
0.0004189435550853267,0.00047320281952737797,0.05019900618289916,0.06753392891578161,28,34,80,78,0
0.00042299624359717653,0.0004645793133406071,0.04880080432324737,0.06414973903881951,35,40,78,78,0
0.00045751808066657836,0.00044982642115423433,0.053405396894972486,0.06164282126469559,32,30,77,81,0
0.00043420329882306365,0.0004771404088994518,0.04855443323625959,0.060538776522075156,28,28,75,81,0
0.0004753574276717084,0.0004766295737674199,0.04690075730844483,0.058970851271393274,26,36,68,78,0
0.001490866234784468,0.0028246182599750685,0.1942193594089964,0.2618541538725023,28,16,67,43,1
0.00133477932059454,0.0024896612570775825,0.18602996712909045,0.2319448318873964,38,14,72,53,1
0.0014289010703069083,0.0027798008208568463,0.1683677853104869,0.23356990704640654,34,14,61,56,1
0.001232773199284293,0.0022480198913480288,0.16125435171693378,0.22234544568502193,36,18,71,51,1
0.0011225998089014597,0.0024400705087401922,0.1557450839275994,0.23270174935907442,34,20,77,52,1
0.0011800815095918355,0.002513671975341313,0.16420576295093725,0.22795024544930637,24,18,72,50,1
0.0013955627930903227,0.0026043645369227477,0.17964619432286721,0.23487668044920815,26,20,66,50,1
0.0013495006416808927,0.0023069436600127186,0.17543021912942572,0.22208390273884002,22,20,62,56,1
0.0012641997034895103,0.0020439434246618034,0.16665176636911033,0.19682637602674874,28,18,65,54,1
0.00121734772680149,0.0021296386258950464,0.16873738814629752,0.21441277165046937,30,20,67,61,1
0.0012837452313078923,0.002585108997559835,0.17480720947721418,0.2521833101411451,33,16,72,53,1
0.0012253014125019595,0.002930424777163016,0.1794887296974709,0.2826737514393679,34,18,73,53,1
0.0014906147189404791,0.002875283783154333,0.20270571611533442,0.2890141906713872,34,20,66,57,1
0.0014459634879279099,0.003057552880458644,0.207842771072742,0.3029558937417325,40,18,68,56,1
0.0013102324038148875,0.0026557727641775036,0.19946594076463023,0.2798865790082162,42,16,73,62,1
0.0012644614064173925,0.002113582335676725,0.2026542414968169,0.24600301355612358,40,24,71,65,1
0.0013218553007940538,0.0021218427220545347,0.20384128554872696,0.24045388784427563,34,26,77,58,1
0.0011940453370535107,0.0018402733478492183,0.1860058566584121,0.1824537111485292,34,26,78,64,1
0.0012138596968896342,0.001967552866126037,0.19128594758484926,0.1797491431644663,30,22,76,63,1
0.0011276255858819586,0.0019374759348715896,0.184246490134459,0.18051055107924663,34,26,74,60,1
0.0011572210622070181,0.0019745497962548055,0.1786241663008873,0.1792042423207564,38,24,73,58,1
0.0011897657486477664,0.0018117663105458415,0.18151618533419867,0.19479230244829426,32,28,77,58,1
0.0012684308267497963,0.001552016632192228,0.1668050967967471,0.1840509906704387,32,28,78,60,1
0.0012052512091312733,0.0014815863685771083,0.15400992759169863,0.17154552270749396,28,26,80,58,1
0.001082751070865693,0.0014081374597444138,0.13557120589488664,0.15931353436082393,38,26,81,54,1
0.001017987111010834,0.0012004345237243822,0.13401714389616154,0.131997457221444,34,24,74,56,1
0.0009339588776909626,0.0012333747760435486,0.1231265036769095,0.1230229238690456,30,28,75,58,1
0.0010662862377489922,0.0013502019627449789,0.14214894565197722,0.1251545090033505,30,26,71,60,1
0.0010955677217737692,0.0015746299037989922,0.14730459357992026,0.14296621405124396,30,24,75,64,1
0.0011372387560486573,0.0018390632513058216,0.1502568527896945,0.16053047614112065,28,20,76,55,1
0.0012006124608426264,0.0016596074981783124,0.1625391301645448,0.15634919644173476,28,18,77,57,1
0.0010999840728725119,0.0015801459969016715,0.16141678993222378,0.1503847873222929,32,20,81,63,1
0.0012184469170813414,0.0015557357553093367,0.17258428095221545,0.1349479085379307,40,20,74,67,1
0.001232926501698699,0.0014068412490370035,0.17516906739349714,0.13092463418093875,32,22,74,67,1
0.0012090222623985225,0.0016800946843596619,0.18473744999270236,0.15695627254671807,40,18,74,59,1
0.0011525027241273613,0.0017088821763668514,0.17292625862234628,0.16643072517472673,36,16,77,57,1
0.0011813261221931615,0.0016101433303191228,0.17156766241921378,0.1691932425759519,34,20,83,60,1
0.001060423283691563,0.001620897913022019,0.16417860593885372,0.16649512158231128,38,18,81,57,1
0.0011310495163764098,0.0014268330799583895,0.1649207658909557,0.14910254313770546,34,22,79,54,1
0.001174177381415068,0.0014734872398069962,0.17153235256531862,0.15066475144119276,34,22,71,57,1
0.001067496699017304,0.0014551285978794152,0.1546309997614023,0.1360011977279395,30,16,73,57,1
0.0010805533150473798,0.001333159618377988,0.1494918702966319,0.13715506473316483,32,18,71,56,1
0.000928673265650852,0.001476594059496994,0.13530230773127325,0.1397076899843568,30,21,77,59,1
0.0009746090225053475,0.001309615003638994,0.13675053845158736,0.1338894696194507,34,22,77,65,1
0.001019057458019669,0.0014162849248239783,0.1424379538720764,0.15374644565925794,34,16,75,59,1
0.001011707843280181,0.0015945379537047994,0.145103359085147,0.15199793982964757,34,14,75,53,1
0.0010592379393242189,0.001347133030368467,0.1486102122613577,0.14019211251332203,32,26,78,49,1
0.0009052402012478052,0.0013207760649583695,0.13109635992413457,0.12473772147591736,38,22,72,59,1
0.0008995564821207458,0.0011237703812589424,0.12257355914408422,0.10719286610214201,32,28,79,64,1
0.0014845305145772072,0.0003517645927139469,0.20638738413446883,0.06964816900962163,29,48,84,89,2
0.0016018974328823915,0.0003546436884683757,0.20052868940008448,0.06493492778911976,28,52,75,88,2
0.0016293433896127172,0.0003531722025713927,0.21649636271206607,0.06544391370325288,32,50,68,86,2
0.0016187143651185682,0.0003668761512038829,0.21137242835720735,0.06313814189532128,24,36,68,90,2
0.0014241200716843608,0.0004369980894089688,0.20473766755786937,0.06715008133385961,22,42,74,94,2
0.0014130615228112858,0.0004416357430658172,0.19367989730012367,0.06922456587914881,20,42,73,90,2
0.0013126429558409987,0.0004358313494890636,0.18237063070237097,0.06605285944868228,26,38,75,91,2
0.0013092235909021351,0.0004205224667531892,0.18756557443982969,0.06273312053213084,24,38,77,86,2
0.0012459579282960384,0.0003856847310613894,0.18406840492547283,0.05458857071528943,30,32,73,84,2
0.0010820770495644678,0.00037060024360619154,0.1508516614151443,0.052896235244587454,22,32,64,73,2
0.0010403216125944824,0.0003721163335245664,0.13684794952049614,0.05179774704656162,20,32,60,70,2
0.0011866614263133582,0.0004160213007971608,0.13539670305735205,0.056722811950455386,18,36,53,74,2
0.0015538498175832365,0.0004861270844142738,0.17334835780901747,0.06840499076543409,18,34,54,78,2
0.0022129193777383842,0.000673563848825101,0.2605509917998972,0.0917924841151461,22,22,53,87,2
0.0028195846344203964,0.0007356068947697726,0.3549579171795937,0.1166214413687157,20,34,58,93,2
0.003177950961604804,0.0008516135111422507,0.42559967554169575,0.1344678836426668,24,38,65,90,2
0.003190847808330145,0.0008600251229073084,0.4467077887703637,0.14231276092261494,22,36,70,91,2
0.0031004297967968182,0.0007113088383319107,0.43266711461495777,0.1299502378782538,22,54,70,91,2
0.0033382697376482047,0.0006721971956729345,0.4147560190280859,0.12291799283256921,22,48,73,95,2
0.002740747487474939,0.0006850581974503119,0.3824036110957771,0.11627642898501604,32,40,71,90,2
0.0027433394905714286,0.0006729710753933211,0.40272779178339835,0.11578908781246659,32,38,75,90,2
0.002818873840682699,0.0006655500077920093,0.44384966276518323,0.12859701229411016,34,38,73,91,2
0.002999756470471963,0.000723596009790977,0.4416185162281445,0.13148218577279502,34,38,73,83,2
0.003226146402659546,0.0007857044303618316,0.4719721698030839,0.13698788274999632,32,36,76,89,2
0.0033567906632635245,0.0007156451773357726,0.49150307076135646,0.12590033433810494,38,38,73,85,2
0.0032332916021354896,0.0007245495559405518,0.47901031760515994,0.11801808826472104,36,40,75,85,2
0.0030449493184316456,0.0006927360016035613,0.45520391263662485,0.10765555694153758,36,34,68,89,2
0.0031326794018612554,0.0006686296543238258,0.47285598840452087,0.1046878900272623,32,32,64,85,2
0.0029249282941021097,0.0006930554384150904,0.43483236469283376,0.11343226433215096,32,34,69,91,2
0.0029110117617569243,0.0005960844044885568,0.41818447190864966,0.11155295072040068,32,42,77,92,2
0.0031981068694960026,0.0006419224904310388,0.4564363189159774,0.11053469097355591,32,42,71,91,2
0.0028826580373194906,0.000585337434860756,0.4330833624241761,0.10223516901401805,36,44,70,89,2
0.0027154939566140213,0.0005409720304504239,0.40448450192325547,0.09182925894892097,28,40,69,91,2
0.0023469558962158103,0.0005251181938205317,0.3577509467314769,0.08625529706325313,28,44,70,90,2
0.0022519290832822376,0.0005313033281018555,0.3242880892981089,0.088215414034204,22,36,72,92,2
0.0023317746094849755,0.0005605158151448859,0.30670901336149325,0.09082597464929708,18,34,73,93,2
0.002023720366983313,0.0005649092331531639,0.2956305872726481,0.08669017243872322,28,36,77,91,2
0.00221177210553881,0.0006020202747685542,0.3317473814121127,0.09244700562240085,26,38,74,85,2
0.0020498224572470937,0.0005711656711374998,0.3161980126951703,0.08625799201075889,24,38,76,85,2
0.002063844208270273,0.000537279566658908,0.302604545744641,0.0855067266175105,22,38,75,83,2
0.002103339670208824,0.0005164407739802232,0.30747043811684216,0.08641264882087933,32,42,72,83,2
0.0020250713395607365,0.0004977491026116317,0.3000038673769347,0.08500521933613238,38,50,76,87,2
0.0020736103052323165,0.0005275236989967531,0.29661666218497024,0.08313214300500302,28,38,72,88,2
0.0022171001062148924,0.0005607339171599086,0.3167962393427338,0.08941430547831969,32,44,69,88,2
0.002040370835117328,0.0006135925857376704,0.29039934017644853,0.0889705766591889,32,36,76,90,2
0.0022276143975697017,0.0005686043356578243,0.32161744338038695,0.09080761123741964,34,42,68,91,2
0.002013395008765425,0.0005643570843823837,0.298180948421971,0.0901110454287173,34,44,77,91,2
0.0021069142621483773,0.000525204652304314,0.2977016427790282,0.0875770992110138,24,46,70,98,2
0.002276822052858587,0.0005306721726262967,0.3212345654251374,0.08783450273179248,22,40,71,93,2
0.00041503684386045854,0.001152862315326817,0.04880984639948339,0.17621298855890388,26,38,70,79,3
0.00041215172454542087,0.0011672045111483461,0.049895604803150834,0.1764590149960787,25,38,71,79,3
0.0004081342772265642,0.0010852178958280585,0.04591827037527811,0.16642378225924503,24,36,77,82,3
0.0004130057239905362,0.0009312857463395607,0.04663314958332351,0.17022593735171349,22,46,78,82,3
0.00042561492941936585,0.0010491421218356918,0.043208512334607777,0.1739393498112842,24,36,77,84,3
0.00039948709497776347,0.001005291083016275,0.03773590806351198,0.16070132459108816,22,44,74,77,3
0.0003820993382978336,0.0010155842721514437,0.03936335344456306,0.1646723866542105,16,38,74,82,3
0.0003652673596479052,0.0009597439610482228,0.03614203939588426,0.15260661982816748,16,30,74,85,3
0.0003424245914354173,0.0009460141072397612,0.03429904733351383,0.14657367922978104,30,32,77,81,3
0.00040591881536428126,0.0014618807177501083,0.04291893385231213,0.20119755874156156,27,26,68,77,3
0.0005546847272954594,0.0021338206983803646,0.055691604613223415,0.2591616322304761,20,24,68,68,3
0.0006784525740290772,0.0024678940433519544,0.07061570386512184,0.2892562083926207,24,22,69,64,3
0.0006956097032497406,0.002939335354627085,0.08701494150390625,0.3705498047883809,30,32,66,61,3
0.0007514919971742079,0.002857572486862604,0.09932965001984657,0.39338260633970473,32,32,66,67,3
0.0006339688471979197,0.002358964322870579,0.09384838599455668,0.37167318337604005,38,40,69,75,3
0.0006008885907903746,0.00247025281734569,0.0880931700732554,0.3793584229747669,40,34,74,70,3
0.0005831936581028345,0.0021349863034935347,0.08033949012795293,0.34231178432800946,30,32,71,73,3
0.000503543164176422,0.001866384672380923,0.06914776759838986,0.28180170652618974,30,30,77,77,3
0.00047056043583289844,0.001687149286258289,0.0653985814397591,0.25653397953025514,36,36,80,76,3
0.0004328530849578068,0.0014799175248574959,0.061615480884902984,0.24614465820146894,36,34,84,84,3
0.0004130861432463693,0.0013424676760460297,0.062259076839172686,0.22104149767786177,38,36,87,83,3
0.0004911333207086038,0.0013646640544185803,0.06492084281140288,0.21656146950286143,24,34,83,83,3
0.00043980080278542154,0.0013627670759930946,0.06527673177088134,0.2209995118081987,40,42,88,77,3
0.0004762095717801072,0.0012515559728484688,0.06798757048454394,0.22251860915965857,38,48,89,79,3
0.00046764778716980294,0.001503678469819489,0.06126675779592127,0.23124044508238256,32,42,90,76,3
0.00044185689634048504,0.0016686616128456933,0.05835670537482862,0.25077727062934624,22,40,90,72,3
0.00044175015073186767,0.0016869792019733865,0.055895797778745544,0.2598832498528066,26,28,84,75,3
0.0004421729384028099,0.0016441627200538002,0.05475228677358288,0.2645062625642521,24,30,85,80,3
0.00041075009221479383,0.0016780694614314767,0.05429640560155553,0.27292908151077444,32,30,83,82,3
0.00041760454729216614,0.0014341472761976073,0.05400685636083551,0.2419389318206035,30,38,80,88,3
0.0004361103586182119,0.0015343683923434567,0.054595582426208426,0.24540127575622459,36,40,72,78,3
0.0004253161144624372,0.001677342128133215,0.05436892763430661,0.2351341085381514,36,36,75,73,3
0.00045100105744111634,0.0016713562384272223,0.05693392629474193,0.2382015679229755,30,40,76,78,3
0.00045719480628284237,0.001780762496040633,0.055624342794424915,0.24195467704493956,26,36,81,82,3
0.0004135845547526622,0.001476513306787067,0.052483024225574104,0.22943005437262326,28,34,80,90,3
0.0004296120000385829,0.0014688694519517016,0.049784795183377424,0.220871912342572,34,28,71,87,3
0.0004092052258680633,0.0011796655209101304,0.047985133389297024,0.19424217929352608,35,36,72,94,3
0.0004273633836704384,0.001183405070635175,0.05172831726118963,0.19387064107263677,36,34,71,87,3
0.00038161252730268804,0.0010767195879580241,0.05122430252049166,0.18064268340062173,30,38,84,81,3
0.0003846168219204587,0.001141204804597244,0.05093894978390497,0.1787964139369272,24,40,84,75,3
0.0003814630342212735,0.0012524116960162938,0.04812036197590259,0.18011144915481989,26,30,75,72,3
0.00038856874010396335,0.0012464869762980502,0.045582603162234926,0.18597732104513837,26,34,72,62,3
0.00036809788797307903,0.001275695872180512,0.045285486387356834,0.18561769778188233,26,28,68,64,3
0.00034510820766059884,0.0012230983127786504,0.04501363979170937,0.181792619059197,28,30,70,68,3
0.0003458807140217358,0.0011769994991132093,0.04585514918960046,0.17757485803164447,36,30,79,70,3
0.0003386624028214949,0.001033613272534528,0.04213501759534091,0.1600053513892727,28,34,82,78,3
0.00035018658668121516,0.0010947920266025266,0.04325545861797473,0.16344407952404252,35,34,78,79,3
0.0003598790563530824,0.0010349004126866395,0.04284404058863157,0.15750110424168082,26,40,78,85,3
0.0003592166455345517,0.0009293595362145963,0.04064428279562849,0.14298873306993176,31,44,81,85,3
0.00024423219693943144,0.00012732511472529273,0.016139172591311878,0.01583688549009013,20,23,26,73,4
0.00024610305137956517,0.0001456404995538123,0.016003767413858273,0.015169999037618686,20,24,24,81,4
0.0002622186752810767,0.00013069037481018705,0.016655604557465384,0.013904032827785382,20,23,24,80,4
0.0002675666376867892,0.00011761688605539746,0.01718042328862148,0.013321436013571435,18,26,28,83,4
0.0002683547239900506,0.0001169416686065248,0.017311502419133828,0.012704219049841729,20,25,32,75,4
0.0002528202041853363,0.00010898511807503438,0.01652239804125958,0.01202353054052746,18,28,32,80,4
0.00024221403375999936,0.0001282801174495963,0.01629628751598819,0.013414728951150364,20,30,24,73,4
0.0002499914735262623,0.0001166887836906856,0.016595618308972823,0.012567257121729852,20,28,28,75,4
0.0002638134502599395,0.00010478726632948905,0.017171988981315934,0.012180391159531385,20,32,28,83,4
0.00027317074414771766,9.97654387278089e-05,0.017621570812715814,0.011614742457484088,20,24,28,81,4
0.00027110809247988437,7.521330060414161e-05,0.01753206261576914,0.010570726714997486,18,35,26,79,4
0.0002609761448921986,0.00010066197626854606,0.017070010196871623,0.012289351664923079,20,28,24,75,4
0.00025691532612301415,8.656240599231861e-05,0.01685487303099148,0.011805658914458235,20,25,22,81,4
0.0002657169365232522,0.00012205518856229328,0.017409974416008004,0.013562041048049303,20,18,26,78,4
0.000280361647819559,0.00011714732693419208,0.01810145489446359,0.012964287816697706,20,20,24,80,4
0.0002826680321513039,0.00011438736269586782,0.018409724596750235,0.012040907684139594,18,28,26,77,4
0.0002751315511495224,0.00010588247520845275,0.017810649443208603,0.012851540771938199,18,32,26,79,4
0.0002630694818385086,0.000106487987225994,0.017112001197992225,0.01275366233334382,18,32,36,70,4
0.0004311943043611408,0.000251733500678785,0.026460494279337686,0.019951279369846548,18,12,23,56,4
0.0005138415580635058,0.00038074955403521874,0.03540683945406164,0.02550327218396311,20,12,25,73,4
0.0005222893240024901,0.000396502138083545,0.03614013494470735,0.026213299092493828,20,6,27,52,4
0.000460229747783946,0.00021954261784223872,0.02922941799952094,0.01621879905678381,17,8,27,69,4
0.00038658535423909937,0.00021025186277737296,0.025216541990022663,0.016787370816231093,18,7,23,66,4
0.0003308522974304457,6.177289758451651e-05,0.018346222768590142,0.009584445251124538,18,36,32,81,4
0.00031134304544598693,5.691146740353717e-05,0.017971497647829574,0.00881037207692342,18,32,26,75,4
0.0003026791070101675,5.4892109485471025e-05,0.017892461774747934,0.008652791608666574,18,30,24,87,4
0.000302795681238632,5.138609930834069e-05,0.01790567352950853,0.00870421435986244,16,30,26,79,4
0.00030253373939402453,5.465698411072267e-05,0.017671889963586918,0.009365648167890128,18,38,30,82,4
0.0002962848674330398,4.890237166949049e-05,0.017403103078466056,0.007834942385857935,18,32,30,87,4
0.00029818766763874024,5.195801392301249e-05,0.01750947009256681,0.0079873913015643,20,38,32,87,4
0.0002971576123220194,4.865752495815722e-05,0.017498768554756412,0.007954405772027252,18,40,26,94,4
0.00029539778035542777,4.729595353163578e-05,0.017518735901604063,0.007179758100802602,19,30,26,82,4
0.00029468137812431206,5.125073428225212e-05,0.017829925912431436,0.008426886511011806,18,40,28,87,4
0.00029756140613332397,5.092199793652981e-05,0.017569622082067946,0.00813962731656246,19,38,28,79,4
0.00029393943535537366,4.866243313339045e-05,0.01752769659377625,0.0075413721330875715,18,32,34,84,4
0.00029630954508729954,4.8775271837974554e-05,0.017546329241783717,0.007946694197406923,21,34,28,83,4
0.000294331988346121,4.596032595067191e-05,0.017784403582171246,0.007368261552778215,16,36,32,86,4
0.0002939232033768273,4.500945718525256e-05,0.01769874943827667,0.0072607902332386546,21,42,32,86,4
0.00028997085547357465,4.551335188909722e-05,0.017712026790062365,0.007548961348150332,16,42,30,90,4
0.00028784746320560905,4.26192215927796e-05,0.017680305817471823,0.007311480861796024,21,41,30,92,4
0.00028767082333058824,4.918731103565989e-05,0.017483669781127073,0.0077398498662911664,16,34,28,85,4
0.0002853751513913623,4.611528847855456e-05,0.0173770788814722,0.00772722938944159,21,37,32,90,4
0.0002844064763856657,4.8981761740522856e-05,0.017363677306360147,0.008399398559501151,16,36,32,86,4
0.0002853432241447202,4.9826292153592504e-05,0.017502909295100483,0.008428421775089203,21,30,30,88,4
0.0002826780260961058,5.1187521998687096e-05,0.017755278743514336,0.008556158780128284,18,30,32,90,4
0.0002820671664713311,5.350318692947188e-05,0.01744026270190615,0.008994954908011514,21,33,34,92,4
0.00028167147578121233,5.232947479998797e-05,0.017342248691701426,0.00833189222666731,16,30,30,95,4
0.000280252117088374,6.037480021939961e-05,0.0174230121797949,0.008938698899234265,21,37,36,94,4
0.00027989543873029895,5.9877635672228e-05,0.01730895310836457,0.008352506145721446,16,36,34,88,4
0.0010797393370860383,0.0013143747504749657,0.16716233678003453,0.16042404536715651,30,30,80,64,0
0.0010502119985349747,0.000990008169880888,0.16273975421800346,0.13077214426251563,26,26,83,73,0
0.0011071623105634622,0.000918104768033499,0.1545445075875849,0.11514673342984152,27,28,80,73,0
0.0010404828404893677,0.0008538901552093815,0.14689833999606933,0.1173354671708543,26,34,72,74,0
0.000943685042164178,0.0007869180030594596,0.14237139437414284,0.10499037630038956,30,34,77,75,0
0.0008070387001631278,0.0008063132462481439,0.12029711635025223,0.10371487822590109,34,38,81,74,0
0.0008724336140822818,0.0007808832556934808,0.12697197671139976,0.10354304749159639,36,34,82,79,0
0.000776282301295388,0.0008216773530359566,0.12603754687430063,0.1034774639838615,36,36,87,82,0
0.0007767868031421609,0.0008726439173240291,0.12184635751617284,0.10138979146218832,34,28,85,79,0
0.0008292810222117494,0.0009219452453025173,0.12443556079247634,0.10467606354421716,32,28,87,77,0
0.0007076751412863619,0.0009475642361773961,0.10782677098967651,0.10062732672862752,27,22,85,71,0
0.0006670300789499051,0.000765013729409367,0.09061477385192102,0.08887086152672172,24,26,87,72,0
0.0006965447347888101,0.0006893473535887524,0.0923797554007085,0.08790554948281296,25,32,88,77,0
0.0006805973389716337,0.000596723558156305,0.08545746194880446,0.07958579242873469,24,32,87,78,0
0.0006395095073474639,0.00046837268702271616,0.09036729295904589,0.06908942776719469,27,30,77,84,0
0.000618414421201232,0.0005997482750672214,0.09604118060921611,0.07763556258805177,26,30,72,80,0
0.0006782911609106856,0.000612239504250378,0.10555582224928822,0.07829253727647946,29,36,69,74,0
0.0007068553133573303,0.0007062353670965437,0.10018855375588727,0.0860959793928836,28,34,72,62,0
0.0007608676201950713,0.0007202040835822991,0.09665842554402802,0.08942046464812535,23,38,70,63,0
0.0006678797974741439,0.000662363659703649,0.09242255375589728,0.08602788754940312,28,34,79,62,0
0.0005984727537637663,0.0006093265075806037,0.07704111432679776,0.07955294094073116,27,34,83,70,0
0.0006456630772618218,0.0005230849889791999,0.0800135303882377,0.07631693192951228,22,34,79,72,0
0.0006041053960627227,0.0005425929095813821,0.07292406589123422,0.07841945360682409,35,34,80,72,0
0.0005188968177870471,0.0004731424946669149,0.06543106560619855,0.07089062813124149,28,34,77,76,0
0.002631278543117314,0.0032260354725180975,0.33034462316893143,0.3011941649906638,30,16,69,50,1
0.002614052102026345,0.0027179927315966025,0.32000064173454434,0.28615076790834004,30,18,65,58,1
0.0026794039770889904,0.002717115366817737,0.31688973866699943,0.28674008284981817,32,20,63,60,1
0.0026449701679870908,0.0029286513066668425,0.3302684191577989,0.30945464503180165,30,20,73,60,1
0.002528022224285815,0.0030132585479979274,0.33297777532483386,0.3208025632758049,22,22,73,58,1
0.0023759747196208793,0.0033835873087742214,0.3366425816233827,0.3471344482704885,26,20,76,60,1
0.002252950366105823,0.0036386596627114966,0.3564253899597358,0.34174409124433247,30,16,77,59,1
0.0023623049776970123,0.00322811871223699,0.3462506521187816,0.3196575591150138,30,24,74,55,1
0.002192384888989591,0.0039596983612620925,0.32871234703319246,0.3653445680492935,38,20,77,47,1
0.002253270632966446,0.0034661473112399216,0.3217821469099104,0.3389181899693642,38,20,72,50,1
0.002281968587591341,0.0032924840860421877,0.3362708562453947,0.30937994590212403,38,24,65,52,1
0.0021794042195601476,0.0034291858192968283,0.3111847235501894,0.3271149638366986,34,22,68,56,1
0.001973581013438375,0.0028702064952237168,0.2893234967086166,0.256044609717144,36,16,66,58,1
0.0020192335691593204,0.0026125106377184186,0.2903623472085982,0.2627604346013114,26,22,67,60,1
0.0019901376675329203,0.0024823908651466354,0.2451392798798535,0.2597044593510592,28,26,68,54,1
0.0019493554912561142,0.002724923904375041,0.2575068725251098,0.2674225707859769,28,16,68,55,1
0.0018540529666186182,0.002878652647385452,0.2427151339364303,0.3019130102789677,30,18,71,54,1
0.0015229958363149785,0.0028955659902657306,0.2074325528225903,0.2787392901053182,26,18,75,60,1
0.0016264950642726772,0.0030334823210243058,0.19156378961543996,0.2787007269833851,20,20,75,49,1
0.0013015548213041214,0.002551183278290165,0.17319333246152724,0.2577111348717748,26,28,79,62,1
0.0015108853672436845,0.002534691501054797,0.17186231177386732,0.24110109635504917,20,32,69,58,1
0.0013809249436883204,0.0029870177742338405,0.1832789739572086,0.27608538813507094,34,26,77,51,1
0.0016282841551670067,0.0027326307007333973,0.2009781813729735,0.2507783492346042,26,22,67,53,1
0.001457706599961147,0.0029596079270156816,0.19966983878780087,0.27566321064926774,30,20,75,46,1
0.0025156901907855047,0.000570810578310776,0.38187258666807167,0.09947684876541481,32,42,70,87,2
0.0024587646140476946,0.0005498916341698274,0.36387965236888115,0.0967375444206688,26,40,70,87,2
0.0025108068090633822,0.0005458406001740068,0.3383575473128863,0.09494979094148627,30,36,70,87,2
0.002507844198126267,0.0005185872788614307,0.3476073889975985,0.08734848915754775,28,38,73,88,2
0.002139669991930065,0.0004784557679529884,0.2906800180155721,0.07943588620536067,32,36,74,90,2
0.0018602171946532175,0.00047777137355142915,0.27956163980493465,0.07929555373382524,38,36,77,94,2
0.0020101628876147346,0.0004424946397006965,0.29258113358089466,0.07433577723791443,34,38,69,95,2
0.0019035727820646134,0.00043855170043631113,0.2745857632234942,0.0754350289712586,34,36,66,93,2
0.0020767118676065406,0.0004992178895790929,0.2811614111301537,0.07931962613730566,30,42,65,95,2
0.0019376430978246125,0.000492867373082135,0.2631755593818096,0.07910693897296014,20,44,70,94,2
0.0018010070780437363,0.0005160187279591385,0.25010618722167277,0.08143679316285793,18,42,74,96,2
0.0019493931995596243,0.00048230935857236266,0.2620142832874976,0.07852431909968005,18,36,78,95,2
0.002014239934115784,0.0004437046774005708,0.2518190680433375,0.08112255568758513,22,52,78,92,2
0.0017271789294150935,0.00044326993456759675,0.24986670496485971,0.07605728715329929,28,46,75,96,2
0.0015937976223727502,0.0004170034592783067,0.22799082641309332,0.07089376996514678,30,46,74,98,2
0.0014487156873323453,0.0003908397119321872,0.23075008590993737,0.07498127776184589,34,46,82,100,2
0.0015409249242380127,0.0003767181954940013,0.2366887902028933,0.0685135056290498,38,48,77,99,2
0.0015275194950301694,0.00041174604185861455,0.22647153856491234,0.0676460328992374,30,42,73,87,2
0.0015951041968209287,0.00040115464505282564,0.2312433181700927,0.0662385625079497,24,34,69,86,2
0.00148688391317233,0.00038005140103497087,0.1960069740176583,0.061524723147945264,22,32,69,95,2
0.0013691885575163433,0.000333126849057772,0.16880267129331786,0.059336284707444925,22,36,78,95,2
0.0012695387547022104,0.00029421892655849183,0.17657476451905949,0.05973952298001765,24,42,77,105,2
0.0011502853305599985,0.00031411225890370334,0.17233979944308628,0.06666911359869566,28,46,85,102,2
0.0012388883398352047,0.00034843128408175265,0.18497976309398229,0.06787778648504804,28,50,87,91,2
0.0006511607289770686,0.002123637561453545,0.08016931716458663,0.3507984337643327,24,34,71,77,3
0.0006220782385200816,0.0019765061581308706,0.07857324526810879,0.3260353551730121,28,32,83,78,3
0.0005797951515718031,0.0020045560464469745,0.08220877435211729,0.3220660032100439,24,36,81,77,3
0.0006160838273719787,0.002067884771509198,0.08000317061956005,0.34893645648955757,31,36,82,80,3
0.0005614685946428488,0.001990373215966084,0.07683464646972976,0.3469318915572138,32,44,85,84,3
0.0005536004550292315,0.0020571732723733568,0.07181707103584191,0.350830366822891,29,42,79,81,3
0.0005253287768389707,0.0019723818752143776,0.06557055136458526,0.3408539569128893,32,36,71,76,3
0.00048537291454881404,0.0017706937282895422,0.06566728656985411,0.2893396755040901,29,42,74,79,3
0.0005135436852033074,0.0016673268859027706,0.06963082306367246,0.27589577024006234,26,46,71,78,3
0.0005000400858786698,0.001722161727756584,0.06977983995754806,0.26377964690948336,31,36,69,77,3
0.0005361814365315958,0.0016915796651295226,0.0692888207257679,0.26815940596373405,32,38,68,79,3
0.0005475160161171351,0.0018036498667682046,0.0705576721804566,0.2994226373199242,29,40,64,76,3
0.0005101042470264567,0.0018339386332582456,0.06429791521220402,0.2930064325204023,28,40,65,74,3
0.000540935376443574,0.0017302840392595573,0.06792605146977086,0.285993685293715,25,40,71,76,3
0.0005110685249052738,0.002010026169101505,0.06609532389560129,0.3043829727952587,36,36,78,66,3
0.0005054883412567057,0.0017766120066610802,0.06425431088774468,0.2629936432649926,35,36,80,71,3
0.000476674688453371,0.0017041055197166619,0.06313927838258518,0.2497474986604059,38,34,82,69,3
0.00042774216415148266,0.001511332519392731,0.05717312846795033,0.23343424894005124,31,34,77,74,3
0.00044448213125018987,0.0013467660681298818,0.0574737415249922,0.19620153681079308,32,38,75,78,3
0.000423785215465424,0.0014000185399456833,0.05433426066320075,0.21126442402024267,29,38,75,70,3
0.00044217897917872854,0.001430794867759216,0.05432780246079243,0.21278530432668305,30,40,78,75,3
0.0003997690043176508,0.0013127669374487087,0.053565986152649084,0.21369415854606014,38,40,83,78,3
0.0003765744025321029,0.001316550627485172,0.04981537002237616,0.2086161213865276,36,40,81,78,3
0.000449586038855559,0.0013448208471272566,0.05058050123599174,0.19933446636813779,33,32,72,76,3
0.0003625438155764974,5.8044999948169516e-05,0.019806205643997078,0.006618375509279774,18,23,24,73,4
0.00036626031125186947,5.1887919065416626e-05,0.020442370739161653,0.006933666115196039,19,28,26,71,4
0.0003674605905513886,4.8712784338045396e-05,0.020531399530680533,0.006418305831436557,18,32,26,67,4
0.0003716790716181685,5.115742439230581e-05,0.02050289772238252,0.006979247362107632,17,24,28,72,4
0.00037138466847222174,5.3025176130652246e-05,0.020215537158733417,0.006141455164939532,18,19,24,71,4
0.00037151322108818364,5.47028671821942e-05,0.019853013856000926,0.006832078391390314,17,24,24,81,4
0.0003741947684499548,6.521513995249091e-05,0.020058521773195552,0.006841447981976694,18,26,26,74,4
0.0003733117671348502,7.028824619398458e-05,0.019974641385152866,0.007819777033673375,17,28,24,82,4
0.0003722268364167598,7.676090424393539e-05,0.02016049999096118,0.008092912148025965,18,22,25,87,4
0.00037643076902699635,6.501933737790683e-05,0.019985551770510025,0.008023127032222256,17,24,22,79,4
0.0004639879766403661,8.916935710843333e-05,0.026384098581149405,0.009697397604167362,18,25,21,81,4
0.0005772119596437962,9.406741017825454e-05,0.03449475998748143,0.009074821299184384,20,18,21,76,4
0.000656143393964289,0.00012599276534768197,0.04051202918612063,0.011442340405179309,16,20,22,77,4
0.0006152479949037342,0.00026440912732716607,0.03773135383259893,0.022363736821903953,14,16,24,60,4
0.00046628864674467396,0.00024036809953848184,0.031029779084565407,0.022145212099115085,14,20,25,60,4
0.00024926736293320504,0.00023597582991069843,0.015905040116067644,0.022409588333803854,18,18,34,68,4
0.0002566182635007949,0.0002528858499250054,0.01672786658680866,0.024363805073423696,18,18,30,62,4
0.0002571172887529951,0.00014478222933212212,0.01679620921047026,0.015927228576966903,12,24,32,76,4
0.0002366509965916574,0.0001463997058306908,0.015548480538968422,0.018099229288490885,17,24,30,78,4
0.0002251889603990451,0.00017937467213986638,0.015079244165823014,0.019489725374328984,18,26,28,76,4
0.0002439345975574887,0.00015652605737064639,0.01567244125482446,0.017305725213821784,20,28,26,80,4
0.0002611400586083442,0.00016785312322174225,0.016846204500822307,0.01714974364362422,16,20,26,75,4
0.0002701149796776238,0.00014582970062623792,0.017564296968926946,0.01665692881580662,18,24,26,77,4
0.00025790542450291476,0.00012123834885311134,0.016878686157706005,0.014565868430073287,18,24,28,78,4
