f1ch1,f1ch2,f2ch1,f2ch2,f3ch1,f3ch2,f4ch1,f4ch2,Category
0.00198530488950254,0.0009159144852354088,0.23934912618677415,0.10174981877997395,21,12,63,48,0
0.0034724538144395335,0.0013863297199588987,0.4418614672056709,0.1562707009317547,24,16,61,58,0
0.004385855322482077,0.001827395584110821,0.5768757535508294,0.20974706987241595,26,14,60,66,0
0.005153936886056075,0.002301099246494367,0.6896917716061478,0.26457974193390205,28,18,55,62,0
0.005777973854000998,0.0021129406004183958,0.7705789458824499,0.23526903161560514,30,20,54,63,0
0.005231160988359664,0.0018836878764819818,0.6920644369915832,0.23707118280654427,22,18,56,73,0
0.005353728419969335,0.002121603291010443,0.7038242435298875,0.23386791050697422,24,14,58,66,0
0.004947989973704346,0.0019384338990736183,0.694047672422169,0.2293172310249527,26,22,63,64,0
0.005939797611353969,0.0026800721505397134,0.8302368836774631,0.3039247061042653,24,20,62,61,0
0.006815211214618133,0.00276644239612685,0.9529889652354245,0.3491035860731518,28,24,64,63,0
0.008392234136682412,0.00344241755686036,1.0477930514994078,0.4141635977866723,30,28,59,59,0
0.009168515561654817,0.003669468417794098,1.121797789487343,0.46081641832345027,36,22,60,61,0
0.008786613996385771,0.003356829709636218,1.0316552863570194,0.44158172766516957,34,26,58,59,0
0.008326835068787473,0.003509388327848073,0.9864519731685305,0.4600421839951091,30,22,62,58,0
0.0075579199755065165,0.0034436113282445375,0.9625685734409459,0.4579921474602682,26,32,66,61,0
0.006571564620953674,0.003353351475504535,0.9156419745944243,0.4393572063637808,26,30,68,63,0
0.006390418675710755,0.00311178533645258,0.9114144336877464,0.44351183097119484,32,36,66,73,0
0.006590521019713991,0.0028416896650874266,0.9574048491124203,0.40800558031233375,26,32,60,71,0
0.006752837826857526,0.0029650225924884983,0.9642773432989874,0.4011883341151647,36,26,59,71,0
0.006876445587436478,0.0028877511042804532,0.9426531805068616,0.3757260193103307,34,24,63,70,0
0.006841545640094527,0.0027307405092632836,0.9177002946895298,0.36537238111649323,34,24,63,68,0
0.006033024589285249,0.0028417236078555623,0.8279289659381615,0.3668384753483993,32,28,74,70,0
0.006052397667039109,0.0023544749841833594,0.8362945424324468,0.3409746149496101,38,30,73,71,0
0.0065404615459116475,0.0023252095743665634,0.8738666066125936,0.33635632039536334,28,32,66,70,0
0.006930791225660467,0.0022834518864919017,0.9573579721389787,0.3381817953345648,38,28,62,71,0
0.00682200368799325,0.002178946673015243,0.9081794161730484,0.3308656947686671,30,28,64,71,0
0.006455484630541628,0.00210542101440539,0.8552789130633006,0.2961987799696839,32,20,65,66,0
0.005608465865245215,0.0022915025554102715,0.740968970207899,0.3193043571333288,34,12,73,62,0
0.004953381692194714,0.002238860346893963,0.6400734651985415,0.2913360911800734,30,22,73,64,0
0.005065371629187799,0.0019424543712711977,0.6851568228801382,0.2603934046561324,32,22,69,67,0
0.00468829948761959,0.0019510849014309772,0.6270358922567993,0.2725466404942034,34,28,63,68,0
0.0051514897568198355,0.0019246741618416322,0.6806515919916116,0.25522917370869425,28,32,66,70,0
0.005090540184314111,0.0023515267934234186,0.6524771887932322,0.29921786416805585,30,20,67,67,0
0.005225945518273086,0.0025949370528512844,0.7002494596104745,0.33778683637696305,32,20,70,68,0
0.005746814708551557,0.002689494650559517,0.8115465537235133,0.33740895210413574,34,26,72,72,0
0.006120908247943083,0.0027811282049736174,0.8225424503501237,0.3513707770536457,38,24,67,67,0
0.0063368716823053554,0.002359783815082386,0.8799264164478002,0.3011517468047838,38,28,65,64,0
0.006401562387934523,0.002410582815887918,0.8796832313132461,0.30344413976371437,34,24,63,61,0
0.006055215029413756,0.0026177091555521174,0.7642027377676766,0.30321496895867034,28,26,68,61,0
0.005360368421778215,0.002168779577991102,0.6744657328597811,0.25577387773954224,24,26,64,60,0
0.004474374498194704,0.001963971495294503,0.5567376123773894,0.2360307635227706,24,22,64,55,0
0.004424591694471077,0.0017500909920371913,0.5139329007427021,0.20128628443452937,18,22,58,61,0
0.004603032613067121,0.0018402886151633892,0.5455858854290961,0.21330111355002968,22,26,52,67,0
0.00545890426058565,0.002512151267463944,0.6534675026535036,0.27490750371033534,28,25,56,65,0
0.006603500478186545,0.0029346854051063107,0.7718783331757149,0.33947692190138773,30,28,59,66,0
0.006420197561346414,0.003210331036230906,0.8334254323291911,0.3815500819333909,34,28,62,63,0
0.005837954196647276,0.0034370165382475583,0.8007583383436486,0.38513921745946733,38,22,66,64,0
0.006036795463938206,0.0031338619665871414,0.8303582443343368,0.39896888941671077,38,26,67,70,0
0.0006735067698168598,0.0001790224546846759,0.06298077949805274,0.016913199956940243,17,24,58,78,1
0.0006610086540153651,0.00019339589500281826,0.0646080904941056,0.016515305546773034,22,22,64,75,1
0.0008115261384370216,0.000202158833739668,0.0880108810891505,0.019990856026948597,23,27,60,75,1
0.0011316530535012918,0.00025217742944386965,0.12542754123778996,0.02854667368969174,18,22,60,80,1
0.0011868755191403488,0.0002884877554447105,0.14147463088204437,0.036695636781324474,29,25,63,76,1
0.0014142798852776481,0.0004599019159282322,0.17254907173129388,0.055838217538588836,24,20,61,70,1
0.0016507629050162914,0.0009529455261429304,0.21541765075438668,0.10614932313440843,29,24,59,61,1
0.002631981683749304,0.0013910485180771363,0.25720388727959304,0.15516946236022025,16,22,65,62,1
0.003123663950656083,0.0020357831425742872,0.38043211187644227,0.24819002025719378,26,28,59,65,1
0.004025535471762588,0.002097897831466794,0.4634308563472277,0.27985558346774136,26,28,62,66,1
0.004469415662177759,0.002373964611088162,0.520314763379378,0.3248591516912182,30,32,61,68,1
0.0049595649441208116,0.0023403611914096867,0.6073005441783645,0.3383315840316529,22,30,58,67,1
0.004639075306226912,0.0022493764900044307,0.5907626482120778,0.308787006722556,28,32,58,66,1
0.0050085745508586165,0.0024839955295388708,0.5937151689524188,0.3438578502912237,28,28,60,65,1
0.00528816575518629,0.002108661124366754,0.6222366187461394,0.3274934797913382,28,38,67,70,1
0.0048039681662513725,0.0021498959550042525,0.6040293753562883,0.3482730112334584,34,34,68,78,1
0.005715138717343494,0.002115418001345346,0.7095799105389141,0.33738616590787046,28,34,62,71,1
0.0057745352413410105,0.0021459749856495612,0.7505821463394279,0.33248263784647397,24,32,68,76,1
0.005579771275727766,0.002308620903840568,0.7112979585110321,0.3411733257505544,26,36,73,77,1
0.005172219522206579,0.0023138433333960997,0.6855699302364318,0.33144631948767417,28,38,74,76,1
0.004786010545914919,0.002570503508868092,0.5933674179378479,0.34228796991518756,30,42,75,74,1
0.004211197925014974,0.002584009057701642,0.5553031577527779,0.3522840619024584,30,48,70,72,1
0.004119032213708312,0.0022378112602027254,0.5386485253964504,0.3159043158171861,26,40,70,75,1
0.003886612183277186,0.002242505583799707,0.5330058143963691,0.3176205849823015,26,32,72,75,1
0.003904280509707338,0.002398548754251336,0.5306898430515643,0.3354317324278214,28,26,69,73,1
0.0037595850999349568,0.0022105228042267108,0.5385998475407506,0.318741286910478,28,28,70,75,1
0.004223326227334474,0.002490293913755252,0.5838025446082211,0.36882300860122436,34,32,69,68,1
0.0045463145672111705,0.002637339292072727,0.5729655918391078,0.3863588423246569,34,34,63,71,1
0.004848774390873431,0.0028279139662214154,0.6086174512967608,0.38202477803141976,32,36,61,72,1
0.005135284213369134,0.00290919218636299,0.6204975793448748,0.39740981085800686,32,34,58,64,1
0.004835278657727865,0.003039842954116691,0.5928659393768375,0.3732583340756033,30,34,55,68,1
0.004759327751263676,0.002813072186139115,0.6098793919071214,0.359212068112686,28,30,62,68,1
0.004556297642193965,0.00293873174593913,0.5936520206950215,0.38748385682339365,32,32,62,68,1
0.004408771027477024,0.0032719488461684116,0.5757623751883981,0.42395642405414163,28,28,60,70,1
0.004439835076939616,0.003126467457484133,0.5898847025100052,0.4455203970971655,30,36,66,70,1
0.0047311004853296725,0.00341796939147154,0.5961176192331906,0.45079687933316326,22,38,62,63,1
0.004527770754968492,0.003465684091787179,0.5764963865990027,0.4383202463531509,30,26,64,68,1
0.004385874704796336,0.003335904503407326,0.5703655510490663,0.4114822028334873,26,34,65,61,1
0.004326628090598933,0.0032870506640019846,0.5620766827150163,0.4109665300744273,26,28,63,66,1
0.003793196978639046,0.0029281364128710685,0.4633265647233065,0.3431477802633985,24,28,59,62,1
0.003079909541491286,0.0027380720115805506,0.3909462100860378,0.2894584931593,30,20,62,55,1
0.00284364558710037,0.0022190131629262985,0.3210809581536555,0.24030266518131035,22,24,66,57,1
0.0026463448544357783,0.0016689329272604116,0.33501968916466135,0.19212435340141787,26,26,68,59,1
0.003349011432302942,0.002025501689402186,0.42431408189702796,0.24441691099623147,24,31,66,62,1
0.0034303577337197067,0.002259713618102457,0.4710641113221616,0.2703183096801926,28,34,74,68,1
0.004502794582186116,0.0024328153124921143,0.578037256980541,0.30984747056136064,22,34,73,70,1
0.003968986944258146,0.002623687016755414,0.5163340554854321,0.33271622999249084,20,40,71,67,1
0.004912021589867101,0.0033671995611366636,0.5572415686400828,0.4021679829011872,22,24,63,65,1
0.0006460092532961116,0.00024365416195754787,0.07156604829412534,0.02222827316383841,24,12,61,63,2
0.0008261038120198254,0.0006119252266407492,0.10561327417363246,0.05376995857578987,24,10,66,58,2
0.0009843390492072484,0.0007312761545136854,0.1268879164780555,0.07301941433513437,24,20,64,59,2
0.0014211379545504001,0.001032974255808614,0.18489773421752964,0.10717467535630541,26,20,63,63,2
0.0015597135271468849,0.00125380183394288,0.19572987405120496,0.13145038531357872,26,24,66,61,2
0.0018867066669451772,0.0012853074181610163,0.2364728955794307,0.14798390229488867,20,22,64,61,2
0.0021361140612935845,0.0014298397428442865,0.2632438083346584,0.15439068518251797,22,24,65,58,2
0.0020464383705560427,0.001722157539458368,0.24784880926209382,0.20144097931867153,24,28,65,58,2
0.0022275946533678644,0.002280505692673132,0.2744680265625509,0.25189156495279275,26,24,62,61,2
0.002152216898732328,0.002534109900445921,0.25967139212152024,0.278155448775938,28,22,62,55,2
0.0021548365477271044,0.0030231404167677246,0.2606559101819875,0.3369448744511928,28,24,68,53,2
0.0020107588544182654,0.003124810923661698,0.25328182856266174,0.36534732413663845,32,22,75,52,2
0.001830363311862087,0.0030183912030824645,0.2221310357131038,0.37488099535714503,36,24,77,58,2
0.002049019676288184,0.0031766171429288277,0.24001723196488176,0.40375963341986343,26,30,79,63,2
0.001856558473472878,0.0030932718152662355,0.23230276812562015,0.39822822000283353,30,28,74,62,2
0.0018615538738919679,0.0029150391992114636,0.23820445918336416,0.3591664306469384,30,30,69,65,2
0.0020344245805516996,0.0029211672375219562,0.2733102671570085,0.3761073601429774,32,30,71,65,2
0.0018764264527755222,0.0028452317139772733,0.2515300940347669,0.37458727049559076,36,30,77,59,2
0.002311680754762777,0.0034862580262614196,0.27692624488376977,0.4186415511370739,24,26,72,62,2
0.002602273333046117,0.0042536131160936744,0.3049103952657361,0.49241427692512746,26,22,70,64,2
0.0028591748832385074,0.004042297444075033,0.28819041935541445,0.4910668641893343,26,22,72,60,2
0.003105717825206012,0.004129337331372114,0.2898669724415335,0.4965333523483795,18,26,59,64,2
0.0025247519051060313,0.0036549973226578957,0.2761886374672502,0.47693743146027184,22,24,67,70,2
0.0024324568563386193,0.003577854072140816,0.2606132408371947,0.48864492005281873,24,26,69,66,2
0.0027455682938022567,0.0035147762462734043,0.28865070254372566,0.48593198500499274,16,26,74,68,2
0.002441338602996042,0.003653066479438486,0.27134344545042866,0.5242405132195407,14,34,69,64,2
0.002537862995596775,0.003980041423445811,0.2789933079270352,0.5566008414858432,20,30,69,60,2
0.0024526440968353253,0.004012597695833192,0.2584906886717011,0.5392340751878397,16,28,72,56,2
0.0017398113296618837,0.004537017547249827,0.2290953371033547,0.5658516603804218,32,26,77,55,2
0.0021084795845172865,0.004256958223458605,0.25669447841917653,0.5317051848233249,28,24,73,58,2
0.002100682440081864,0.0040324598627208925,0.24823464688624214,0.4901527223876582,28,24,78,59,2
0.002151632389482207,0.0036002342786675095,0.25656694407603037,0.47762201221998496,32,30,75,64,2
0.0022522929698226522,0.002959647434000813,0.253855680546091,0.42722286037870455,34,28,70,68,2
0.0021562297454257103,0.002903618891344446,0.2433250584731908,0.43313825613901125,26,30,71,67,2
0.0021431617449767567,0.002806831215802594,0.24607596517796887,0.4388208698574376,22,30,70,69,2
0.002024261290116406,0.0028106825320162853,0.23982093445313954,0.40411209092485273,24,28,65,68,2
0.0021695685017824114,0.0034135958186467586,0.24480571594800235,0.45466215463217075,24,24,68,70,2
0.0019335675613180094,0.0033221235691519367,0.22927369609047227,0.4195408537711835,22,22,69,69,2
0.0017690857890200209,0.003165373514646323,0.21988309081356053,0.4219417469887372,26,22,73,65,2
0.001869389453251388,0.003353294820115909,0.19157869410463965,0.38607348819820964,18,18,66,67,2
0.0015095863087998362,0.002534770961308629,0.14951980105837287,0.26562260089010387,18,18,66,60,2
0.0014528528932319159,0.002586020178059289,0.13998381759900272,0.2649153199227277,16,16,66,57,2
0.0009054483553843317,0.0017984749501712696,0.11085194592266763,0.20445410563266248,26,24,65,61,2
0.0010261233703464407,0.002108251765297502,0.13139637456263353,0.2881258150983955,30,26,74,65,2
0.0011292456743071454,0.0029487471450230177,0.15648917290398298,0.358711405531125,36,26,71,62,2
0.001060594226557476,0.003260973712565697,0.16678980067653665,0.4159344794469251,32,30,74,66,2
0.001088297474807659,0.0031899350989056563,0.1711451667688336,0.44048446938793834,34,34,80,72,2
0.0010800911145357791,0.0033278850103482817,0.19414793734854452,0.5169454454226426,44,34,82,66,2
0.002607239521849124,0.0005137518530584353,0.31383518314974557,0.050870952370027846,20,12,67,75,3
0.004187972097506973,0.0008784100706850125,0.5294820434349256,0.09135784226585615,26,20,66,71,3
0.005451566029570431,0.0008835418326897724,0.6933704269305563,0.10341425758559691,24,20,62,69,3
0.006572525743281179,0.00113703042878177,0.8185943685223283,0.12914468944548985,28,20,62,68,3
0.007310320774746716,0.0010941425826237227,0.8810620475683463,0.13865844579253228,28,22,56,70,3
0.0068752058738592746,0.0010187374125120196,0.8671012372499922,0.12201030981002746,30,20,56,68,3
0.006724683152846912,0.0011231673443782334,0.8836354665652486,0.13861275992107452,32,24,62,68,3
0.006866904005577022,0.0009119161789774292,0.8853366940157711,0.1188191313927981,36,28,65,73,3
0.005912366484835574,0.0009297988852378351,0.8573669376455265,0.12118330679597519,40,28,70,74,3
0.00571201309155068,0.0008312851016932051,0.8409618134086305,0.11774825111087528,40,30,71,73,3
0.005745243720198523,0.0006844329197238201,0.8578586042522235,0.10049653347421962,42,36,69,72,3
0.005436717172179034,0.0006473890346156157,0.7870209522008942,0.09153085254269713,40,36,65,74,3
0.005895460705043578,0.0006057806001970176,0.811289662178683,0.0854331625415598,30,32,69,74,3
0.005650539618093559,0.0005214826819646961,0.8054000660337397,0.07679878270397499,34,34,64,66,3
0.0055751598923739565,0.0005216974617238346,0.7800774890744844,0.0738196356152406,32,36,66,77,3
0.00634304996219561,0.0005301506459923488,0.8627543439216355,0.077158386068578,34,36,67,75,3
0.0069754602780144484,0.000531762420866881,0.8706880543615301,0.07245417027007187,26,34,64,76,3
0.0069942016489634665,0.0005280030142504,0.9359326677619012,0.07278866349777187,28,28,66,79,3
0.007247891153393151,0.0005392751652271131,1.003138102518516,0.07578981683919002,32,28,65,68,3
0.008065228003345859,0.0005782932857072933,0.9980613110855937,0.08146649319531851,34,34,62,72,3
0.007998359759832742,0.0005596987889646811,1.0994465407623062,0.08337105861035533,34,42,66,71,3
0.00813570854735393,0.0006420932273139428,1.1408603166315947,0.09366649090772183,28,40,62,69,3
0.007992176954373929,0.0006665883815625062,1.1776055928192937,0.09666517962828775,32,38,62,72,3
0.0080789460240246,0.0006455285148842252,1.1824612237349579,0.09386024883991412,36,36,65,68,3
0.0066728689051066825,0.000599549505843634,0.984307464813146,0.09171674483340092,36,34,72,70,3
0.007071758682900803,0.0005279415976952533,0.960573238857518,0.08070443036609364,32,34,71,70,3
0.007148090742882587,0.0004895851309724058,0.9278943912736916,0.07122142925801324,34,32,67,68,3
0.0071301593498219904,0.0004949967293377989,0.9699012601162387,0.07236955106810061,30,32,66,65,3
0.008575256726060018,0.0005463732311985383,1.1390665396478032,0.08036949786363619,34,32,58,60,3
0.00831991597008158,0.0005902924296615993,1.2062612773474066,0.08252182907731953,38,32,62,63,3
0.008434236878013398,0.0005503339072389434,1.1393577704214926,0.08721184785571003,30,36,63,66,3
0.008732809381511074,0.0005755526472081048,1.2273773778405437,0.08809532662881894,38,34,66,69,3
0.008980722378820954,0.0005956364021793863,1.2304276108360002,0.08877592400645982,32,32,64,79,3
0.008466929051004728,0.000567473482801629,1.190070259535776,0.0877331052919617,28,38,60,73,3
0.009302112575846472,0.0006363469185740813,1.298557416452677,0.09409443990210982,30,34,60,71,3
0.008382116968641417,0.0005971860432281216,1.1647743734228815,0.08979154757239238,32,36,63,76,3
0.007610714445721775,0.0006087679823094945,1.0968864541518564,0.09402998112741298,36,34,70,72,3
0.008261515923870455,0.0006273511161471858,1.1425555863743004,0.09791040026907231,32,38,60,74,3
0.008033314234644304,0.0006157637239993583,1.061047147284573,0.09101443996956747,32,34,63,71,3
0.006659539450700601,0.0006740403180453945,0.8234684237020218,0.08160076980426324,22,26,59,68,3
0.004694371095136223,0.0005305734465687195,0.5948008629935094,0.0557960937351873,18,16,58,66,3
0.003115274583224872,0.0005190446414728745,0.37475091414248607,0.0555324744720115,16,14,59,72,3
0.0020107072046120305,0.00038339012034684436,0.22894704308899752,0.05509771392026047,22,20,55,72,3
0.002918441762698334,0.0004595014862410493,0.3690843813281562,0.06617478151030863,24,20,55,71,3
0.0038511854829946677,0.0006179668940252508,0.535286996234511,0.08642456899873256,32,36,57,75,3
0.0038431952738195107,0.0005344925498069181,0.5738689316868761,0.07998407749898216,34,28,59,78,3
0.0046035768673385,0.0004988378795157148,0.6593026512872244,0.07808148092014743,32,34,59,74,3
0.004851345489528305,0.0005789987117661545,0.6770051382131425,0.0841574051590186,34,36,64,73,3
0.0008932210770739897,0.0003666452323555576,0.08716366814635805,0.039884897677802636,22,22,66,63,4
0.0007125605823809543,0.00031032801557439894,0.07885630405027923,0.03587784217631899,24,23,64,67,4
0.0006878030751722213,0.0002855566719562699,0.07668412152135831,0.029622806146678983,22,18,59,66,4
0.0006972062562100266,0.00024752603847092087,0.07536854064100301,0.025011628459351242,22,21,52,70,4
0.0006448782145292455,0.00018481754105222195,0.07186008823905775,0.01955161026330488,28,28,54,73,4
0.0006659884131662868,0.00019310537320965313,0.06923601686619879,0.01993936846469395,22,31,54,68,4
0.0006786483409947559,0.00018072193306640415,0.06693597138479689,0.01876194343012512,20,20,60,71,4
0.0005984162167548658,0.0001773271919015503,0.055476110692685564,0.017997570732364278,16,25,63,70,4
0.0006059396519642248,0.0001698710296849775,0.059386340576412,0.017343462376675754,22,22,61,62,4
0.0005907478381736161,0.00017478512603703842,0.055912656129313454,0.018164398412591393,22,31,58,57,4
0.0005534300609390519,0.00016822002183353816,0.055288478822682056,0.01747051352531121,30,26,56,53,4
0.0005480194922132443,0.00017244012844796407,0.05570453565819566,0.018394802433272153,28,33,56,57,4
0.0005841369388882749,0.00017229018741039666,0.05493102447869521,0.017509848530954622,22,30,50,61,4
0.0005261539944619538,0.0001739729048899771,0.05409474137555222,0.016567886520863224,30,27,54,66,4
0.0005200556001303007,0.00017511236359893728,0.050902531277927814,0.01643344568983338,28,24,54,60,4
0.0005168633884178728,0.00017144636801840951,0.05286474426438464,0.014959863029616455,26,21,56,60,4
0.00047889873254818965,0.00017126078084915683,0.04891778601675884,0.015244529135181954,22,22,59,59,4
0.0004598415007707213,0.0001745320630038299,0.047936417639027236,0.014584035434797332,20,23,56,52,4
0.0004940946557897213,0.00017641559705796687,0.04783058319345919,0.014102826360421466,18,20,47,52,4
0.0004722506067347918,0.00017397580262061812,0.0467853569429177,0.014175464495173167,20,23,50,56,4
0.0004952665223536075,0.0001688478488149221,0.04821128826258699,0.014024910792610168,22,24,46,63,4
0.0004882082453297354,0.00017310829900333885,0.04841899619459367,0.013219911328895023,24,25,43,52,4
0.0004759117053780911,0.00016206123944886985,0.04834075740088412,0.013320482916877667,24,20,50,49,4
0.0004925489764806717,0.00017268091676330352,0.04748251721879535,0.01375883256767462,24,25,48,51,4
0.0004811102064586414,0.00017694532958601448,0.048378006453045894,0.014651627889733494,24,28,48,53,4
0.0005453906148928086,0.00018498989858374513,0.04970870028149048,0.015067585099838429,31,27,50,54,4
0.0005500702430143087,0.00018803787301634195,0.04874605784426892,0.015271775034352226,24,26,47,54,4
0.0008414651113025019,0.0003772094311385511,0.07049739028591893,0.02798773237383586,20,18,42,40,4
0.0013640258045250842,0.0012283946392306416,0.11446466052257577,0.07290436047606517,18,5,39,52,4
0.0017779331873994087,0.0012961620684667078,0.13744381403796146,0.07742143533647836,18,8,41,52,4
0.0018669681471596951,0.0012193334713851186,0.13892613093761563,0.0793421963382472,19,12,50,59,4
0.001616562338728,0.001122014001097937,0.1383126536209515,0.07543874426117787,16,12,53,59,4
0.0013717368193664084,0.0005779710466145227,0.11773397964877291,0.046125594094568095,15,16,54,49,4
0.00137040542861282,0.0005474211300321178,0.1084658630352653,0.044173199940736305,16,18,59,55,4
0.0014260962191259719,0.0005365910695438313,0.11732837913405747,0.03814693567468089,21,16,54,43,4
0.001394902299804368,0.0005319961481123477,0.1140015482773221,0.037000832710303626,18,18,57,46,4
0.001462015381427351,0.0005488683425541863,0.1198005870646461,0.03710408652099101,21,16,58,40,4
0.0014727312540378104,0.0005311560655202881,0.11364475749401837,0.037472725778196665,16,20,55,48,4
0.0014492147753739726,0.0005267432396505147,0.10885350316890702,0.03993659575674747,15,18,53,50,4
0.001479022638915062,0.0005362624560026865,0.11751397447977018,0.03992603092599765,18,18,48,52,4
0.0016813812608219968,0.0005499766397513499,0.12235537370603185,0.040512660759736314,14,16,43,49,4
0.0018484586552063782,0.0005269988787847046,0.13991738215414443,0.04007331393014324,18,20,44,57,4
0.0022713550159757234,0.0005379593792672066,0.1623064127956741,0.03904879373307776,16,16,50,45,4
0.0023556620933926813,0.0005105697863907245,0.17578504798623715,0.0386828503476637,22,20,51,46,4
0.002632511243903489,0.0005237505128645203,0.19393156809372986,0.03909989452668173,12,18,48,50,4
0.0027136891467793413,0.0005032178039853925,0.20911237320157355,0.03878781696327772,18,20,48,48,4
0.002966508587239734,0.0005242791838412264,0.22470460512210408,0.03783688636102478,16,16,47,50,4
0.0030232571085247704,0.0005003533742151764,0.23029047067695807,0.0375854066827601,20,18,44,40,4
0.008405880149329912,0.0020391570155044603,1.0337078151882728,0.30267051553078395,28,28,52,77,0
0.008721846718015324,0.001999847667412305,1.0057408249284943,0.32167843359545106,24,30,51,73,0
0.008111405998336034,0.002197596321900016,1.0073466789406822,0.3088062566966186,26,28,55,71,0
0.00677724462719716,0.0022996592220529562,0.9020358313233783,0.2952669459358392,30,24,59,64,0
0.006467944005283265,0.0022427444486141867,0.8381009752421833,0.2993756868356119,30,24,59,63,0
0.005907083088369569,0.002182115266838128,0.7702994078503799,0.2796064729137571,30,24,65,67,0
0.005634714842315144,0.0019151167979211384,0.6833388077080796,0.2559175519654471,38,24,67,68,0
0.005394068400104913,0.0018469817246593073,0.6506287064951715,0.2604071088956428,38,32,70,69,0
0.0054419127851886686,0.0019685015101595952,0.6739818268651411,0.26738770218059144,34,28,72,70,0
0.005159960584924655,0.0017199816096404813,0.6528197586788526,0.23786384185922624,34,32,73,69,0
0.004611051948630937,0.0021296349984519848,0.6301771117442323,0.2881955115176785,36,24,74,66,0
0.005081048652933936,0.002386825701515003,0.6530827532585186,0.28991022319058035,36,24,69,73,0
0.004845715386862874,0.0025636618452281983,0.6900363407810632,0.3090230768323771,32,30,64,68,0
0.005030053067887629,0.0030404895433116057,0.7033023632149571,0.3451424820939036,30,32,64,75,0
0.005932526370722824,0.0029721069998238504,0.763165653035175,0.3512955270607054,28,32,56,65,0
0.005886794530762174,0.0030744177504248727,0.738337585845691,0.35077257811146173,30,24,60,62,0
0.005051780893280488,0.0027409162944278627,0.6201740498731003,0.3365431965738108,28,22,64,64,0
0.005698849811119322,0.002767432903253843,0.7092142329732987,0.3612394628100014,28,22,60,65,0
0.005345569150201056,0.002276718318410671,0.7010529107578231,0.3240975231239782,32,28,63,75,0
0.005577900258202627,0.002288190187329701,0.7292609028213426,0.32489680675054916,34,32,58,74,0
0.0063298833578066625,0.002208577141326746,0.7963636243431912,0.30432205631876585,30,32,55,76,0
0.005909787606151774,0.0021587717526276333,0.7736625774310297,0.29419405869590864,28,28,57,67,0
0.006252411955474443,0.002236909075299526,0.7983817681491565,0.2728990780842744,26,28,58,64,0
0.0071389128841837035,0.0018881773109054398,0.7799049039253646,0.2562214839325908,22,22,63,75,0
0.006719544154073291,0.001913379391151479,0.7793970116312257,0.26792119037890233,22,24,54,76,0
0.006544037544748796,0.002016446352438123,0.7787489759708925,0.28564230475622593,28,20,55,83,0
0.006327458521039513,0.002247901901589664,0.7598114319017216,0.2873596525246214,30,26,54,78,0
0.0058612757080511516,0.0021780999798514584,0.788532798613887,0.2829666929362227,28,24,56,71,0
0.006113838911713472,0.0023403526228449496,0.829072728306566,0.29299683005697713,28,28,62,73,0
0.0065183236087980705,0.002301793053261579,0.8567388092164846,0.2708943646007548,30,26,60,65,0
0.006802325538516944,0.002312446874495126,0.8784534283714517,0.2592823782150094,28,28,59,63,0
0.0062361553138595175,0.0020963766535846656,0.8148971417414429,0.26236340007993353,32,26,65,70,0
0.005699885990614839,0.0018699022788273645,0.7480060726617083,0.2463633064280003,30,26,58,68,0
0.005388690695449081,0.0018502575363825617,0.7099838864056874,0.2293265191770249,30,24,69,69,0
0.005114330224361202,0.0017263695078063134,0.6518281507135832,0.22362024844787218,24,28,69,76,0
0.005513182730456091,0.0017295815522698575,0.72920094335284,0.2118360834364581,32,24,69,82,0
0.006023751639426775,0.0015237166725851675,0.7833935473703746,0.2096071412666101,30,26,66,79,0
0.006273316602426665,0.0014814706407442612,0.8324556813902947,0.20646409664451712,28,28,64,80,0
0.006463738314963647,0.001754312884931194,0.8590573886204389,0.2321477949990425,32,32,67,75,0
0.006066272408554988,0.0017530780339005145,0.757595058532553,0.24499149809701293,30,26,66,71,0
0.005771480302893527,0.0019562427747303944,0.7190073680369223,0.25540802136048135,32,22,61,72,0
0.005954177163081537,0.0016978970356027558,0.6845347018535497,0.24705688520195818,26,22,59,75,0
0.006153033662576784,0.0019257950929695864,0.6876776597754295,0.26507839025967767,28,24,58,78,0
0.006269043170127221,0.0018236041929978889,0.7038389586852195,0.25196754913147273,26,30,52,79,0
0.005229538718756078,0.0017313858253880329,0.6380288315886391,0.22670441558228124,20,28,64,75,0
0.004854705140284489,0.0017243051334583936,0.632856333907901,0.24677242505777988,20,30,66,74,0
0.004790789026780315,0.001381035006340157,0.6358303002953499,0.2003279562908647,24,36,64,73,0
0.004794165494130845,0.0014640700056750239,0.6236655923729111,0.2128294292070084,26,30,60,71,0
0.0050578847785766766,0.001377627069172662,0.6322634559812885,0.1993848389136468,26,26,54,76,0
0.004490381947271282,0.0032639825637258207,0.5510189728955229,0.41744600663961845,26,24,60,79,1
0.00481022715089681,0.003633785582732988,0.5429712397146541,0.4459458104801503,26,26,50,70,1
0.0045764706986958946,0.0031917714978258495,0.5496299121203866,0.4093081456206312,32,24,56,72,1
0.004387988524310735,0.0032788467145594734,0.5226127212118589,0.43870354810355605,28,26,64,68,1
0.00461645093383701,0.003705997632658817,0.527754728870615,0.4531456331308497,24,32,58,61,1
0.004768063245391223,0.0035157287764694066,0.548282390390294,0.4727043396595048,22,34,64,64,1
0.0044746374131481945,0.0038909763734816124,0.5887341790324984,0.513823007907747,26,38,59,63,1
0.004710080844401031,0.003829045511855,0.5906424153805236,0.502711325572063,26,24,57,63,1
0.004721502289744057,0.0038623536206691977,0.6214593342182713,0.5034289866558055,28,26,57,60,1
0.004122694329934342,0.0032924518817044517,0.5033941154910583,0.40020064733453864,24,22,56,66,1
0.003197825212878036,0.002281622728142018,0.365355452469985,0.2746689490182095,22,20,59,67,1
0.0025415692039918295,0.0016564786740677496,0.3127025573441482,0.18369961752853384,24,12,57,65,1
0.0020251307120198623,0.0008374497012422513,0.22829379416204493,0.09361520452033809,22,22,63,72,1
0.0025662566827540506,0.0012476947436043113,0.3192492769387059,0.16524601123334956,20,26,63,74,1
0.003302057751836499,0.0015680088339031092,0.39910467149647644,0.20407482579505934,22,24,62,76,1
0.0042073995966146974,0.0018573325181207728,0.4926683898207606,0.24910453371640043,24,30,57,69,1
0.004502707009180628,0.0019115626272412014,0.538787257813488,0.24934313169620123,30,32,62,77,1
0.004605203397595268,0.0021202104311644158,0.5755355020185455,0.27319588073304674,34,28,60,78,1
0.0044126949076771374,0.0023332956287326696,0.5677143519200272,0.28960057296669284,34,32,61,75,1
0.004145759459684943,0.0026433760779192594,0.5423701905751228,0.3297650981006149,30,24,68,75,1
0.003839222228193701,0.0025875907670043392,0.5042473584509699,0.32156988163100353,34,24,62,72,1
0.003929931022503479,0.0025296061324915093,0.4982619815226834,0.31150238836838984,26,26,64,65,1
0.003882498620419264,0.002718289585962847,0.4759709623120035,0.34187860749714144,28,24,65,62,1
0.00423642252730293,0.0026686988060098255,0.4770951881380806,0.32821777264498964,16,24,61,61,1
0.003969673731903631,0.0027638598460631913,0.47339978992721987,0.3471894126311146,20,22,60,64,1
0.0037555267657116355,0.0026271272870655054,0.4463124130005526,0.34006619533503785,28,22,67,63,1
0.004164293276816944,0.002613761905027406,0.4653530336707207,0.3054126831168923,24,22,62,65,1
0.0036820768584808028,0.0023264599978701133,0.4396189116763046,0.27155635189431165,26,24,66,67,1
0.003209351224696073,0.0021796331211941466,0.41088771762268683,0.2714331824378946,36,28,70,68,1
0.0032770644508474858,0.0022921284314697905,0.40175711042283124,0.27756450247890857,28,26,63,68,1
0.003271424917039495,0.00216228711222614,0.3807016240685117,0.29790531193776015,27,32,69,65,1
0.003336439598872446,0.0022685035342397625,0.37560395902471333,0.31047909876362073,32,22,73,61,1
0.0035548935228807243,0.0028952039696149927,0.4104068075843746,0.3565597090443394,32,20,62,62,1
0.0033593674760277734,0.0032277706772293564,0.3929809529383092,0.37656770179418986,32,20,70,58,1
0.0035359783693148226,0.0032564161314542904,0.43841723078533335,0.36483964906238675,28,18,57,64,1
0.0034292722676238087,0.0033566360456659798,0.4507644731451008,0.38058432566440786,26,24,61,62,1
0.0033455082767473014,0.0028408024785209905,0.43650165857059064,0.34373422456567726,30,26,61,58,1
0.003931067675004566,0.00254459570035696,0.4698342282865072,0.3167290019030186,22,28,60,64,1
0.0035943083588201898,0.0024500585719126338,0.4311017916812745,0.3122980965304358,24,30,59,62,1
0.0038839023925726582,0.0023928114128768828,0.45493847090626555,0.3099492831131276,28,30,55,69,1
0.004155451879179782,0.002571982414009427,0.4704607941711093,0.3358203416712943,30,22,57,74,1
0.0037843402851883362,0.0026583306087542987,0.4306436926911363,0.3544810644412899,26,22,56,68,1
0.0037188048946394784,0.0029182244482436667,0.4616168810468764,0.37851585094743906,26,24,67,71,1
0.003792375591829798,0.003084585727719179,0.4691243143353829,0.3791042068354091,26,24,67,67,1
0.0037203304842229434,0.002812816076399876,0.44778906010728703,0.34375863813982954,22,28,61,64,1
0.0038513997324825583,0.0027467761235489057,0.485806694418663,0.32228738399521817,24,30,61,63,1
0.0035748118365797506,0.0027131160295214146,0.4274758071309851,0.3509630591139634,22,32,66,59,1
0.0034912682087208857,0.0026209042990104014,0.41331663317129785,0.34525404339544835,20,28,69,62,1
0.003164875718990709,0.002549785796786512,0.410178944975909,0.35798215546665224,24,28,72,60,1
0.00123774388536544,0.003164432492461536,0.20756796993890275,0.4491868668022913,30,34,89,78,2
0.0012369696136289028,0.0029366711970125426,0.20337971792951653,0.4491672454711258,30,32,90,77,2
0.001236062029311382,0.0028326734953285256,0.20172634239234197,0.43624711031193114,36,38,93,78,2
0.0011208330843393505,0.0024734019945759464,0.1986017328573424,0.40935980209639383,44,36,100,85,2
0.0010803877739503447,0.002386039625039757,0.19087480907145504,0.396937977954748,42,28,96,83,2
0.0009443748173208556,0.002401734239212279,0.16588210440300205,0.39362368603280584,42,28,93,85,2
0.0010473657025514367,0.002507495998597875,0.17072058515386618,0.3858426267597144,28,30,89,88,2
0.00121242432135984,0.00267101534233214,0.1976930591310105,0.43722475083534434,32,38,80,82,2
0.001323321671838675,0.002777721817622802,0.21219557932007466,0.46173899596736223,38,40,81,78,2
0.0012006383000995094,0.0026239770540455675,0.18106004298206338,0.37788950860535425,28,30,72,65,2
0.0010626173725305854,0.0026810380587195433,0.14594824148932217,0.3397432619546743,26,24,68,54,2
0.0007287085895914714,0.0020061547616164136,0.09900435069872868,0.24337521496682854,35,26,71,55,2
0.0006920974706477635,0.0014520033565727775,0.07651211949124885,0.16564143233509693,28,22,64,58,2
0.000978698226774663,0.001794559768920564,0.10670940257559458,0.21784306490350405,23,24,69,62,2
0.0009237315027795355,0.0018541537206709447,0.11605103568429816,0.23262412241921274,34,34,69,63,2
0.0010238943970418252,0.0020316597711088507,0.136210295119259,0.28650387684590434,38,32,71,67,2
0.0010926292333882058,0.0021766999275528503,0.1546724467860682,0.3056952866728709,36,32,71,66,2
0.0012153884842039677,0.0031219707972029824,0.18668344582926594,0.4739059772573524,36,24,70,66,2
0.0013082089730608278,0.0037380227239596237,0.22695954014683273,0.5355725662037932,38,28,77,68,2
0.0013903481071087772,0.00393631072645725,0.2514993635138393,0.5578732832113854,42,32,85,69,2
0.0016017210666488244,0.004128049454105325,0.2531537444187689,0.5866037309229027,38,30,83,63,2
0.0014480875681078158,0.0035696986819488607,0.2510940384498845,0.5287067759568954,40,36,83,67,2
0.001365527310501351,0.0032813706894805395,0.23468557584215308,0.5137801747658768,38,32,86,74,2
0.0013085646405500675,0.003056899514850505,0.21610809328306843,0.499745839810072,38,38,84,78,2
0.0013159899219551963,0.0032926157745985568,0.22148829878999052,0.4833088757603438,32,30,85,81,2
0.001360151957923069,0.003270139489638847,0.22720785598209772,0.46328802284077003,36,30,84,84,2
0.0013674800428272094,0.004036024600148308,0.2398274564434578,0.5469073352883012,46,30,83,76,2
0.001415418940393286,0.0040754868794635555,0.24470585286823762,0.5773291564535191,42,26,82,74,2
0.0014402831468216934,0.004232402064622562,0.24624901235951743,0.6069992224365911,40,32,85,75,2
0.0014161526557640504,0.004200775534369004,0.2362446892668942,0.6443813800658743,36,32,80,74,2
0.001434221209234167,0.004091689329171805,0.23528129012606575,0.6424347231077309,36,38,85,77,2
0.001315842426079699,0.00404967719043306,0.2282268885224941,0.6677186764713907,42,42,84,82,2
0.0015081580636317831,0.003796093023019106,0.23093915569350748,0.6566475134365419,34,46,86,78,2
0.0015148324210015787,0.0038678450101268867,0.23380582853144388,0.593529212657554,34,38,79,77,2
0.0013985053708102,0.0030286758861379367,0.2211162936872379,0.5221735131324178,38,34,82,74,2
0.0013262418320736896,0.0029460613233477755,0.20969229833268568,0.46819568855901056,38,26,83,73,2
0.0011644231242251336,0.0029799512349285196,0.18837430812946965,0.45599715217933956,34,30,84,75,2
0.0011624717500525845,0.0030673548228847287,0.17762721117357894,0.4419309997345325,30,32,82,75,2
0.001175927427055992,0.0026042278604351326,0.18838440194751907,0.42358039018521165,38,38,81,81,2
0.0012867937588436774,0.00263477711629852,0.1846115842017547,0.43641075247657796,36,38,88,84,2
0.001185059115503103,0.002327701864478322,0.19655601913468626,0.4162604288994413,44,34,101,85,2
0.001123736187163116,0.002346558633623792,0.19795330184443816,0.4064357818659589,40,26,101,80,2
0.0011029022150094768,0.0023950360859749382,0.1834699288339781,0.404476022587251,34,26,100,78,2
0.0011279730182224227,0.0025877495586501937,0.1831844582968494,0.3881470836815421,44,24,94,76,2
0.001161930727205663,0.0028038385062724826,0.1818359643046735,0.3938940571374916,40,22,85,71,2
0.0011222814116276288,0.0029478858031546946,0.17646995606118607,0.38678981757484554,36,28,83,76,2
0.0010561114996650981,0.0028497660897318037,0.176166056905302,0.3785745251191109,38,26,89,75,2
0.0010821781121913745,0.0025236166961787733,0.17909163484417695,0.36962619744226916,36,30,84,79,2
0.0011133344317969386,0.0028602579077003105,0.18316344652572158,0.39779656720224993,30,30,80,81,2
0.0038945699399654077,0.0006929183578920222,0.568870517826176,0.08372851421976615,32,26,70,77,3
0.0038976728145565962,0.0006131828177912955,0.5958561772168428,0.08093793760577564,32,20,72,80,3
0.003818464568125423,0.0005944298200453788,0.5685296926626201,0.08331045496822757,34,22,67,79,3
0.003961605146436733,0.0005833802705456958,0.5696851433381891,0.08982198899165789,32,28,69,80,3
0.003976117713160596,0.0005317663739946555,0.5606605644032968,0.08712084073890249,30,34,71,80,3
0.0036395215588591644,0.000512820660366939,0.5240914648850082,0.0828975572858684,30,38,67,79,3
0.004120443089639891,0.000564339638342336,0.5644926697596242,0.08559886019054375,32,42,64,75,3
0.004772476797709078,0.0005661380195815768,0.6591457486418236,0.08419594983318175,28,40,62,72,3
0.005468105269970162,0.0005538214922554179,0.7330930368240066,0.08090195150805174,30,40,62,71,3
0.0047528791411864755,0.0006231933888808184,0.6776430669485205,0.09068827344465862,28,36,68,69,3
0.00427610343916885,0.0007292061065222217,0.6073160217609914,0.10091719487386239,20,32,66,72,3
0.003710119100327157,0.0007224532078146408,0.5012315559076949,0.09988226821242839,30,28,69,68,3
0.00298256875336757,0.0008119122334774526,0.43929339553836577,0.10898123298375333,36,30,70,64,3
0.003715488622688503,0.0007396428581937357,0.5651477954267612,0.10734433939214742,32,34,68,72,3
0.004445567208866794,0.0006154232364982641,0.6744189286175543,0.09130426112073041,30,40,71,76,3
0.004911862963531538,0.0006884373530836269,0.7333859134510713,0.09544003268602892,34,34,70,76,3
0.00562547003580486,0.0007464167713402787,0.8455909085638761,0.09633156331483653,34,28,62,77,3
0.0058924136277034075,0.0008156878605230143,0.8505399787796667,0.11757555882097807,30,30,65,70,3
0.006068427371153166,0.0009107207520277426,0.8796438341812254,0.12254987801379995,32,34,63,67,3
0.00599068379877206,0.0008461828977863471,0.8759064971751734,0.12262207136667962,34,30,68,69,3
0.0062317623284336675,0.0007777446040706103,0.8210693776170601,0.11630258232864399,30,28,65,69,3
0.00524426336085323,0.0006601425379052882,0.7689174877913659,0.10510635217734816,32,32,67,72,3
0.005098488520280369,0.0007086930265461148,0.7054367851600569,0.10457520148333209,26,32,65,72,3
0.005220854924924695,0.0008140204998345835,0.7544617731231277,0.12334328324992863,30,40,66,71,3
0.004999240070769913,0.0008610086705766733,0.7303950371085413,0.12730647650167473,30,42,67,76,3
0.004699366009084562,0.0008976386023529871,0.7286489145630283,0.13124540194706924,36,38,76,73,3
0.004814872986149873,0.0009227116558964605,0.7867095829271559,0.13599480804677314,44,38,76,75,3
0.0043935899105545725,0.0008127232272166127,0.742518382818823,0.12270446749411626,38,30,79,72,3
0.004726325657500281,0.0008126207751557302,0.7535626436267926,0.12134308051849,30,34,79,74,3
0.004994118032309544,0.0007389438667178443,0.7470389117703804,0.1091076579024836,32,28,69,78,3
0.004877036596403881,0.0006035150590449464,0.697185263222666,0.0977075390444556,24,30,69,77,3
0.004922430037535572,0.0005498743922750227,0.7036522984219218,0.08811995718738638,30,34,64,77,3
0.004907267296012028,0.0004575763333831118,0.7035979114764211,0.07447880859974788,32,36,63,80,3
0.00496536099745805,0.0004471426382992027,0.7445139417619135,0.07335127067803632,36,36,66,84,3
0.004734426310998462,0.00041605120832110474,0.7132671856598101,0.07185327471737761,38,34,73,86,3
0.004362592645031006,0.0004683748627730612,0.666675153606375,0.07454812102682798,36,32,69,88,3
0.004137554720469931,0.0004282851132961604,0.6241056129713658,0.07505483730699167,38,34,72,80,3
0.0038142012594050857,0.00043036610062108135,0.560605192392241,0.0725101113026648,36,34,73,88,3
0.0038584398218095917,0.00047474261007359017,0.5951225081487512,0.07373750887709353,36,34,72,82,3
0.0038053142514098744,0.0005129656508881294,0.598327297765439,0.07525023405577305,32,32,71,82,3
0.004058868538307879,0.00044375371917789667,0.627228029713976,0.07321098827446611,30,28,71,87,3
0.004022687510180485,0.000508673196245232,0.6164639201211686,0.08101477248185167,38,32,71,78,3
0.003956990270048647,0.0005051762351690221,0.6245473738923851,0.08346393571824341,32,38,72,79,3
0.004339153010091953,0.0005044597027015784,0.642958981718481,0.07921569368332859,36,32,72,71,3
0.0048913847723870765,0.0005018701822914006,0.6591892791165135,0.07713285568664686,30,40,65,77,3
0.004771268566554394,0.00048179253196051,0.6445476091859696,0.07703545894715315,34,42,64,77,3
0.004583923033424134,0.000492202530028041,0.6246542446582705,0.07573307079437594,38,42,64,70,3
0.004188876964766436,0.0004469594025309756,0.598707706376181,0.07589260497245123,36,46,64,76,3
0.0038387572144565323,0.0004478269896184841,0.5568359437373978,0.07974212655779558,36,48,65,76,3
0.0010872305998489104,0.0007267471483402115,0.11299611812716179,0.06851372764727844,26,12,60,55,4
0.0012221525516388956,0.0006505950719695629,0.11702101642015124,0.05926569805939678,28,8,54,55,4
0.001093092095509989,0.0005226333681138799,0.10470393404568706,0.04408305371026128,24,10,48,61,4
0.0009193794901220255,0.00042317248132169727,0.08409137405199932,0.03571432375099913,18,12,48,59,4
0.0006383310561229802,0.00027597094613901365,0.062403822913187836,0.03121543248515237,20,20,50,55,4
0.000689411348943885,0.00028896733692026355,0.058816300470532996,0.030796709795668325,23,18,49,56,4
0.0006993756982846364,0.0002942863529395041,0.05595643410817345,0.02872626152527152,18,18,43,57,4
0.0006133486910522873,0.00028028077427987735,0.04866507160282907,0.027673053106016712,20,18,42,60,4
0.0005652705644091697,0.0001840695320523205,0.0455075096606706,0.017761241142468652,18,16,49,64,4
0.0006054254565241277,0.0002460328517348719,0.045807037311960244,0.023519372565082703,15,10,45,58,4
0.0005808758925245799,0.00021067191801917633,0.043703060327529006,0.019391615093775297,16,14,45,56,4
0.0005151141759351757,0.00019187039594921186,0.04425451086697929,0.01741601193664496,19,12,39,61,4
0.0005011323711362801,0.00021434333846199715,0.039881034056725065,0.02044483888622416,22,15,50,53,4
0.0005038411354223128,0.0001599458888833605,0.04284945583543827,0.015826846330553635,20,18,56,61,4
0.0005446018513701248,0.00016737462696736198,0.04365295230743212,0.0173142698201948,22,24,50,65,4
0.0005441995286181563,0.00018771402185482986,0.040675299334623154,0.01929451501168379,22,26,48,66,4
0.0005244443202109299,0.00014745723269809206,0.04499739728215997,0.016116739610739506,22,30,51,68,4
0.0004898610220001441,0.0001493259138649419,0.03922545331667021,0.01712850949432687,22,30,48,57,4
0.001005944707835729,0.0002863362714106865,0.07715903439300918,0.024401619180481327,12,20,48,57,4
0.0011927228743051155,0.0021182655176327438,0.09407014051641192,0.12040978090444841,18,3,58,71,4
0.0011972377922116135,0.002225227545648197,0.09984210838949131,0.12297232964462225,18,4,60,71,4
0.0008715092517611918,0.002156927908514759,0.08942588125609145,0.11714603284035197,22,4,66,62,4
0.0007070548832393086,0.002009798061908036,0.08537755220875054,0.11241100691833873,26,4,68,53,4
0.0006019168753425366,0.0001883221423420108,0.08587065469968407,0.019947402582503267,26,16,68,69,4
0.0007446563731080616,0.00018313629527422838,0.0944951773348958,0.01828750140438789,26,18,66,73,4
0.0008082501470446457,0.0002083907932327917,0.11154839103929601,0.018131184654991174,34,16,61,69,4
0.00106842400086079,0.00017833515781826833,0.12976329999905747,0.01597337059725155,26,20,64,68,4
0.001072006712289413,0.00018399773335923348,0.14110183981701754,0.016890122331748414,31,20,59,59,4
0.0011347988701763028,0.00017460545005289985,0.14851045827841505,0.01676847234411933,26,20,62,68,4
0.0009904651871123632,0.00015855547239973565,0.1376986774030638,0.016719105946110344,26,30,59,71,4
0.000980909247133483,0.00015993663349405564,0.11947710253425754,0.01662476836218563,20,34,62,64,4
0.0007806037529917744,0.00016456974838333592,0.09239826863135849,0.01613559061955862,24,34,59,64,4
0.0007304486166851216,0.00015634749303904352,0.06915856210120128,0.015885138604342673,24,30,53,62,4
0.0004934911508802846,0.0001643928268101539,0.05267497058810663,0.017079616285964647,24,28,56,58,4
0.0004890484461314904,0.00016047023350110575,0.04455651515529346,0.01615797324005282,25,22,52,59,4
0.0005178981436029104,0.00014174996749999395,0.04251109660449939,0.014581146272256049,24,22,51,63,4
0.0005561385794900442,0.00013009895159215207,0.047368245473835044,0.012939163579650035,24,20,55,62,4
0.0005421708821358365,0.00011750362004771868,0.048433823656397146,0.011873982957560019,24,28,56,69,4
0.0004676494363324541,0.0001192386492772964,0.04672134002610186,0.011582247461678708,28,24,66,61,4
0.00047242873793790474,0.00010914417789444536,0.045992685492908386,0.012026996358121319,22,28,66,75,4
0.0004795143337276634,7.960504859532962e-05,0.04829182027995714,0.010195799858299335,23,28,64,83,4
0.00048824718899216743,6.192940854478097e-05,0.04762867286096222,0.008985611939946236,22,28,61,85,4
0.00048056639755970107,5.880514128822267e-05,0.05102570467864597,0.008938997583515596,23,36,58,91,4
0.00046276395107247695,5.736138871284211e-05,0.052710579468968226,0.009013478432769532,18,38,65,89,4
0.00045659140068322765,6.0655187909139984e-05,0.049157855468018,0.009363377501262161,19,30,66,87,4
0.00050560280420212,6.589718804298843e-05,0.046886309501098095,0.009626467353683443,18,30,64,80,4
0.00046867472581686666,7.397868727605081e-05,0.0496413913430388,0.009494793171506762,25,28,58,78,4
0.0005080402956118119,8.338930240147803e-05,0.0508533967057584,0.009193874156874683,20,25,54,72,4
0.0005417407518079908,8.294484765355467e-05,0.053709811845506716,0.009332877894915105,17,22,56,72,4
0.005977247941457151,0.0030533211456905507,0.8572130458669446,0.3905666602225344,36,22,66,66,0
0.005586982782870984,0.003164975475839864,0.8026511385717049,0.38171445853774477,32,22,65,67,0
0.005830875038617397,0.0031233589347977003,0.8219430301554594,0.4009373878855614,36,24,64,66,0
0.005423583906227483,0.0030868568773239763,0.7837997456294323,0.3846900497090747,34,24,64,59,0
0.004737386300371597,0.0028819621489133617,0.7074257005476394,0.38081794612444936,38,24,70,59,0
0.004974871063298756,0.0026109681736651794,0.7059826644426297,0.35364002671620426,32,28,76,66,0
0.004710917060414804,0.0022866322830946712,0.6695021450371473,0.2963117974422535,32,24,80,64,0
0.004609658203714843,0.002352206468961615,0.7144348655366916,0.3008118827230285,36,28,78,65,0
0.005482855396265739,0.0023057068135855703,0.8024023106672618,0.3027522475651727,34,22,76,64,0
0.005770620219105203,0.002638470053994147,0.8101564451689548,0.32159904454053173,38,28,71,65,0
0.005797371801768159,0.002875978570591389,0.7984547607806887,0.36544485362519863,36,24,72,64,0
0.006317228032569415,0.002814446494094995,0.8019045472672411,0.36425400605341407,34,32,71,60,0
0.0060808440190152566,0.0027161172110415233,0.8362040597026907,0.3722493747249695,30,28,70,58,0
0.005480682509998833,0.0023219219006570617,0.8041884459333004,0.32333648900595824,28,28,70,64,0
0.005651397228479785,0.002069297110810245,0.8290750492633627,0.3038553346869767,22,32,72,69,0
0.006827581571130859,0.002283034847014941,0.8666570199023284,0.29661172554230797,20,28,69,63,0
0.006137481866024343,0.002403405174066921,0.8080455150352921,0.2838408544575188,26,26,70,59,0
0.00748740663294804,0.002400940087375675,0.9422819383104084,0.3129778096628225,28,30,61,61,0
0.00834965505313664,0.0026464929640518373,0.986888447301354,0.32069237896287744,26,26,59,55,0
0.007234163526503685,0.002601463188569462,0.8808420048634653,0.3291096736883115,18,28,63,54,0
0.006928877298484967,0.00257778847497865,0.8632404304820119,0.32506146002997427,24,28,60,62,0
0.005988304844520169,0.0024968038116468445,0.7905278463388337,0.3122810254659389,30,20,62,66,0
0.006461806824908621,0.0022965713636991622,0.8478824343413742,0.3243799595555573,32,26,63,69,0
0.008326863916798478,0.0023880106194683007,0.9905938696845368,0.3289877154274463,28,22,53,75,0
0.0044678506369093375,0.0033711641940875874,0.5576857145590073,0.4378405803861369,20,28,57,59,1
0.004328504049271981,0.003627337029536302,0.50548645987538,0.45898933223287397,25,28,59,57,1
0.003961154202737461,0.0036294727778653697,0.5334933977365388,0.4872105880130484,34,30,63,59,1
0.0042783055701758116,0.0036270163731058785,0.5184221070240617,0.470653153672027,30,30,69,63,1
0.004207868702273248,0.003279120544797568,0.5220670278870735,0.42504145306470464,26,22,70,64,1
0.0040362094577545615,0.0037033853446745753,0.5334419165465499,0.4718583346253597,27,24,69,64,1
0.00456603431622339,0.003799305143254114,0.5821029476935539,0.47157581612305605,26,24,57,64,1
0.00417561649369969,0.0034928407064273733,0.5300103848159614,0.4636578918356965,30,34,66,67,1
0.004130621421022558,0.0035479030270350684,0.5273645440598407,0.49488691913791616,30,36,69,64,1
0.004136575105529631,0.003376221624667549,0.5097364358413476,0.44292242505281515,30,30,69,61,1
0.0037433559956754196,0.0029688079314196987,0.5139730027457718,0.4271596063247543,36,32,72,62,1
0.003916163602061274,0.002985724441472422,0.5461287820348247,0.4317781045613312,36,40,71,64,1
0.004093301181705231,0.0032860447148615863,0.5588517495309405,0.46762172958106996,32,34,66,69,1
0.004708629633436429,0.003106531223778723,0.6145525993171523,0.4650766725478737,30,38,63,67,1
0.004647861598516528,0.0030625763178844024,0.5796772740033803,0.44823375430934365,30,34,56,71,1
0.0049226833863804855,0.0033146594694880333,0.6208367540336854,0.45355538678739826,32,30,53,68,1
0.005128590998255222,0.002808238112102471,0.6347662361597317,0.3973290066789947,30,34,54,68,1
0.005006484904026304,0.0027985717370157936,0.6336275315224428,0.39809996602013936,36,32,60,66,1
0.005385048415856657,0.0030685679219963884,0.675085210192216,0.416116656987776,34,30,61,65,1
0.004981774129654859,0.0035416546513771597,0.6280034011127582,0.4560763628706647,34,32,68,65,1
0.004815425847936829,0.004111686177620409,0.6323170198725563,0.4908645363135114,30,32,70,62,1
0.004441644742604473,0.003773117834617408,0.5942047282241653,0.4749844190032325,26,32,72,70,1
0.004236641497109496,0.003780712518777764,0.5652832267423683,0.48004869561114555,26,28,70,68,1
0.0044609499587522465,0.003628992799683822,0.5628361261924287,0.44217550498500025,30,28,64,70,1
0.0011519757284938728,0.003579888219282998,0.2068001161692866,0.5647186388535472,40,34,94,74,2
0.0012586769585047689,0.0031978906578334783,0.22216268662694275,0.5246539886683914,40,38,92,71,2
0.001450945699504039,0.0033521689292524393,0.21839129507973315,0.5378048122739244,40,36,89,68,2
0.0014696745052961645,0.0033473821264261173,0.22140535688282845,0.5045392110150155,34,38,82,71,2
0.0013313973794226177,0.0034121804450278977,0.19995718031921575,0.5198696629711116,34,34,83,66,2
0.0012558032688706328,0.003268942036035778,0.19446923938859817,0.5126395977696165,36,36,80,73,2
0.001208311820025758,0.0035888782735506407,0.1870681027843191,0.5296522376612877,38,34,89,72,2
0.0010965656671355004,0.003629230942490989,0.19243399414324344,0.5821750961622298,42,36,93,65,2
0.001216117147708091,0.0035604438423343632,0.19999354458806184,0.5626649819672629,34,38,97,67,2
0.0012531831087832324,0.0038938778145852617,0.20392800738772468,0.6080472731559486,38,36,88,69,2
0.001359161231038425,0.004239789759723422,0.2297122451956985,0.6422222549269623,48,32,84,74,2
0.0015042393592340853,0.003948609479910759,0.24213023492581942,0.6297322671034714,38,34,83,69,2
0.0014457547294951046,0.004573901975387632,0.25637023537914655,0.7274394178875786,42,32,81,74,2
0.0014522137843262272,0.004813361284957562,0.26091614019279524,0.7500928750215929,42,32,80,71,2
0.0014479514402120108,0.004905750791110337,0.2476297632521055,0.7374092490338656,36,32,75,72,2
0.0013637119603247734,0.0044284970373184625,0.23161338349957444,0.6847117011084627,34,32,74,71,2
0.001400094934715402,0.0038657775176683135,0.23381111609730743,0.6012597499078922,36,32,77,75,2
0.0013712841122334252,0.003744523463086956,0.2283292795650864,0.6133829286741359,36,36,80,73,2
0.0014460596481710184,0.0035942721769341864,0.23902900129295823,0.5982811020145355,34,36,81,78,2
0.0012782000370157073,0.0037767423489365633,0.23275505328066604,0.6034193681156682,46,36,89,81,2
0.0012578315046853105,0.0035704837108714985,0.22053198707116975,0.5650261692659141,40,28,86,83,2
0.0013009538205573181,0.0031842683987530285,0.23942128768104096,0.5095231996210423,42,40,89,84,2
0.0013070838268993549,0.0030741977443268075,0.22378177930400237,0.45763644560894007,34,38,86,74,2
0.0013827335482747285,0.0029649824392531006,0.2205557242376311,0.44163977447512126,36,34,85,75,2
0.005467853359241127,0.0005011626768169761,0.6741894668739093,0.08410856791398404,30,40,66,75,3
0.005795953821176016,0.0004945488938974996,0.7052528426437115,0.08695271033614493,28,42,70,73,3
0.005787472866913022,0.0005018679594038797,0.7089001012972806,0.0840284927769906,30,34,74,69,3
0.00615252321701601,0.0005124617219599103,0.7463000266846457,0.0877955235059309,28,34,72,76,3
0.006386901601593066,0.0005729933748530941,0.9017250607245214,0.09049790317685244,34,32,73,69,3
0.006551104934567198,0.0006343414886928911,0.9511117493798456,0.0984338936346877,32,30,74,68,3
0.006467624650873268,0.0006444716355846972,0.9872881779903033,0.10220940298964401,38,34,72,74,3
0.006029697227088843,0.0006287503309593466,0.961516924961479,0.10122610204548177,36,34,73,82,3
0.004973679639487261,0.0005630630303046326,0.814173864041017,0.0973722401005438,42,40,75,85,3
0.005063906740309338,0.0006228325189595923,0.7776145466216441,0.0979702663617374,36,36,74,84,3
0.0054317913193848546,0.0005870854797770112,0.7527612416016267,0.09288253898004677,36,34,63,81,3
0.0055158762526195445,0.0006149154520571708,0.7786198999592687,0.09204989676391154,28,40,59,73,3
0.005803866089315918,0.0006142832148141458,0.8064396224327209,0.0925193365173941,30,32,65,71,3
0.006152171709713716,0.0006294878869232892,0.9067003794896347,0.09089296408784953,30,30,63,75,3
0.00591980656031353,0.0005938164640545843,0.9017581390712192,0.09079005373679797,34,36,70,79,3
0.005377124977949458,0.000623909452585866,0.8597748473473458,0.09606492534412474,34,32,72,77,3
0.0052153539330255265,0.000611538318066884,0.8127065370213897,0.09492571420756993,36,36,74,73,3
0.0049840629242179435,0.0006230994288871674,0.7563682398637726,0.09551863560607078,32,30,76,73,3
0.004711288638138204,0.0006438659029754322,0.7756199319018526,0.10084437062190212,40,38,77,70,3
0.0048017454021731165,0.0006088642553088635,0.7590981653886653,0.09633552800061555,38,36,75,77,3
0.0052927098845449196,0.0006074757937224078,0.8171403712629638,0.09377465114973313,36,34,76,81,3
0.005020842656473901,0.000636954155278821,0.7496378067304313,0.0908148625645609,34,34,69,85,3
0.0046727511965819315,0.0006474051191144714,0.6785661800878467,0.08104153196825911,36,34,75,88,3
0.004337999692002411,0.0006558469935578964,0.654851117988856,0.07872849479249072,40,28,71,79,3
0.002999461435876774,0.0005091723802325128,0.22850281826642918,0.037931124983317736,16,18,46,46,4
0.0025465582027817627,0.0004996911816484925,0.21006346159392006,0.03755673230005852,16,22,45,48,4
0.0022293279584055473,0.0005195997081487443,0.1836445566731915,0.03869576682970574,18,20,52,48,4
0.001838083615898433,0.0004913352419955804,0.1531752719664361,0.039431040944696155,16,20,45,48,4
0.0016412179305621405,0.0005054194366963842,0.1344372142028199,0.039591606803644284,20,18,46,52,4
0.0014929415368154248,0.0005087325372231737,0.11811860744583665,0.040684004368689276,16,16,51,56,4
0.0013623076648204605,0.0004959633676141853,0.10489573700790097,0.040559817081037564,14,20,46,52,4
0.0012307107285508237,0.00048166476239954424,0.10374276611515158,0.04001876119273699,22,20,53,46,4
0.00124456230975567,0.00047131147500934655,0.09659685155202788,0.0390349957338051,18,22,56,54,4
0.0014191503040270085,0.0004492772393018333,0.10471263800944657,0.03675953561831832,16,20,52,48,4
0.0018244339504156402,0.00156395480722605,0.13583604142124958,0.10091208362310139,14,3,47,79,4
0.0022180034130976777,0.0016969011894932757,0.15811304845627444,0.10418947343106894,22,4,46,55,4
0.0024375872006821096,0.0026465035757888694,0.18003260653688202,0.18967007477780234,22,10,47,41,4
0.0019361798186893742,0.0027419041050139054,0.16839378737213315,0.21361741297635561,16,14,66,44,4
0.001513415059295976,0.0018633805985910782,0.14999324716089474,0.18318573831205626,26,14,68,60,4
0.0012582667740424177,0.0015309605067919724,0.130830848763487,0.1908268641078647,28,18,69,60,4
0.0010925263364758868,0.0010825527307447213,0.11293828686485033,0.13060336201201653,22,16,69,50,4
0.0010087363952082683,0.001170142720992377,0.10919151805871997,0.1363287085773801,30,16,63,51,4
0.000958157507705669,0.001042072373500883,0.09759917452680221,0.10833936386012696,26,14,56,46,4
0.0009996102002435428,0.0008722716779461851,0.08631824436616926,0.08944628407408876,21,12,56,52,4
0.0008923808672277229,0.0008141874003005893,0.10138685254519103,0.08500562465337456,24,14,61,52,4
0.0008581792840640928,0.0005916693112538252,0.08522124431252963,0.0574644424459797,20,16,55,58,4
0.0008348030726913313,0.0006338299336032338,0.0937086377272668,0.06836277845094527,28,18,62,52,4
0.0010874881155026532,0.0005562114162288918,0.11245870784220567,0.05899134012901679,24,14,67,60,4
