f1ch1,f1ch2,f2ch1,f2ch2,f3ch1,f3ch2,f4ch1,f4ch2,Category
0.004139632932655351,0.0031379524487060873,0.46537335281350706,0.35336008593536744,18,20,59,58,0
0.004955018091384672,0.0035042913078665544,0.4824192254910287,0.3952544098224813,20,24,58,63,0
0.004715344309349208,0.0033383814601668864,0.49942096123961527,0.36922891750170245,16,24,58,47,0
0.0051805478672528205,0.0033687203758440217,0.5555778124071742,0.3941927086633699,16,22,54,55,0
0.0042480733075932935,0.0032977473476108322,0.43647133545902794,0.37974993972702054,18,24,54,62,0
0.0037684000918260544,0.0036365528416329356,0.44756407030307105,0.39405155028612915,22,26,64,63,0
0.004140728094171478,0.003803622118762007,0.49491284019930093,0.3915511651066112,22,26,53,67,0
0.0035390112689826247,0.003880421301038082,0.44347291394542554,0.4142864478596756,24,20,58,64,0
0.003965141599527825,0.004408692701008381,0.4686154339096512,0.4629866005112913,16,20,60,64,0
0.003715822445864883,0.0036888675511360237,0.4434838344777107,0.43883340742851207,26,26,61,70,0
0.0034787295245020705,0.0038366728707297983,0.45502417163309933,0.4527188935421763,24,28,60,68,0
0.0037609949162813816,0.00346772845327122,0.5081163946215101,0.45485755270737094,26,32,59,56,0
0.003678431321479519,0.0038968212092631255,0.5027012423764758,0.4531121577224708,28,22,58,48,0
0.003907830328493558,0.0038280749508123085,0.5116896107806376,0.4599126439208922,24,24,55,49,0
0.0032016939690078135,0.00396118358276672,0.44221544084229447,0.4705933178976122,26,26,59,52,0
0.003074747209817372,0.004393809908264257,0.4138459091233623,0.49147452972400096,28,26,62,57,0
0.002995741081922451,0.003863366857099331,0.4228255604211687,0.4772229952775177,26,32,62,64,0
0.00323640261411023,0.004324276424327405,0.4643349141858911,0.5089438462645596,28,28,58,55,0
0.0032180316200908247,0.004795127415554537,0.47213183528790525,0.5249086308384935,24,24,58,61,0
0.0036840559702284005,0.005848910982165387,0.5144569061656166,0.6584674215290449,24,22,56,56,0
0.003794697960890857,0.005954013337326531,0.5219413187886586,0.6653728281816714,20,22,56,57,0
0.0034369777419617094,0.006752855830078301,0.48156125623690993,0.6593168262987672,20,22,59,61,0
0.004061547632573277,0.006316786364661634,0.5289012354521032,0.6672984844469101,22,24,60,51,0
0.003471525014205671,0.00504635978854688,0.4394777392405307,0.5420762261818496,20,26,61,55,0
0.0033767239040895717,0.004593588296241071,0.42790047531041747,0.548562924119287,22,24,57,60,0
0.004121652245504716,0.00457008544846962,0.5294623745794593,0.5409434365380096,26,24,56,59,0
0.00392729099118268,0.004313731536345905,0.5212749423159548,0.5338902854502171,26,24,62,63,0
0.004531201905563186,0.004577073784894311,0.6084728801460859,0.5256331925500329,32,26,61,65,0
0.004678476344235255,0.004505990259333614,0.6252987524925221,0.5326759438466078,34,26,58,62,0
0.004857442880070717,0.005053088601314637,0.5625944272332671,0.5497736413314109,26,24,62,61,0
0.004695397944235603,0.004858471230716598,0.5279246972301321,0.5098969022879389,20,24,61,57,0
0.00462892784001075,0.005690922325660026,0.5659093947204531,0.6036339717212469,24,22,60,60,0
0.005487458759273598,0.00628105077285478,0.604237382729743,0.6122030447812554,20,28,51,61,0
0.004644448466438182,0.005922482029155081,0.5994048835542862,0.603430925323847,24,26,52,65,0
0.004917766824021564,0.00604801955685396,0.6096452734352509,0.6462165028889009,28,24,51,62,0
0.004398657630442821,0.0050560373606628175,0.5505980368232357,0.5872632168068916,30,24,57,60,0
0.0037650376437759606,0.004713145697720051,0.49271486849666724,0.5850927424395572,32,28,60,61,0
0.0034893298718659174,0.005312864355504252,0.49857421747423614,0.6300337488504327,28,26,63,55,0
0.0036930939914477955,0.005342582467410186,0.5079774232848707,0.6328450360070915,30,26,66,58,0
0.0034089830102414977,0.00484401731361285,0.4734585787388273,0.5460058000433601,24,22,65,60,0
0.003247007042013399,0.0038676985197988573,0.41745590682470884,0.4485321189715835,22,22,69,60,0
0.002746207635489923,0.003269717929992465,0.33380733147865443,0.3438233331217676,20,22,63,54,0
0.0024468176685071893,0.002989383074224563,0.2821087446845198,0.28171283812396736,30,24,57,52,0
0.0026364659424147267,0.002946240619625036,0.3449501518726388,0.303708457197626,26,24,57,52,0
0.003341081529261729,0.003268536267368463,0.4561533484863573,0.3303915507703972,34,30,58,56,0
0.0038712859155805857,0.0032955451120322606,0.5269621087963677,0.35646004310791923,32,24,56,65,0
0.003947298861973313,0.0029221803340196183,0.5173643396043631,0.34222564033330155,30,24,57,71,0
0.004464207732159575,0.003549596902939541,0.5164870082597509,0.3875929490491832,22,24,60,65,0
0.000751684920638898,0.0009441434593926062,0.09753499093760018,0.13894243220747354,26,26,72,75,1
0.0008616729887606307,0.0012558555118857813,0.11639030520094301,0.1856654041527921,34,30,75,73,1
0.0010101243571189978,0.0013167941045053749,0.1395852166347024,0.20064397066788112,28,28,74,71,1
0.0009991752159919092,0.0015829618895837757,0.14321821314166666,0.23124699833222834,28,28,78,69,1
0.0009858753336126917,0.0018272090159469749,0.1443055636729976,0.255524092767729,26,28,83,70,1
0.0011362720395204098,0.001738663872233101,0.16927382815819397,0.23935416049050337,22,22,86,71,1
0.0011598097621257895,0.0019206250663060095,0.16929463117228383,0.26106396394760467,26,24,80,72,1
0.001278940575747354,0.00195885204073948,0.16913337665961387,0.23514914529634662,36,22,81,71,1
0.0014179443183060764,0.00187428754595631,0.18920919159405453,0.2365411031839293,34,26,76,68,1
0.0014574099731137682,0.0017665676233488917,0.18407289065900484,0.23530776108814547,34,38,68,72,1
0.0015039898480448805,0.0016208318890981025,0.19535226379253182,0.22133229929481152,28,34,73,70,1
0.0014896007298935618,0.0019782467473838344,0.19314706169444684,0.25824050721386915,30,30,68,69,1
0.0013882387046635534,0.0016420116119738892,0.18363408225680058,0.23971432181116056,30,26,70,75,1
0.0013162665506644083,0.001876443693266549,0.18059644385570361,0.235096709411588,30,22,68,72,1
0.0011281107983983026,0.0017972638676194393,0.1607521651350113,0.23077805031486423,30,26,69,73,1
0.0010866717465685299,0.00133739149980539,0.16402959680969534,0.18288338120660483,30,32,68,77,1
0.0010219666423376807,0.0015580067839323264,0.1543026695692138,0.21159521324598735,34,26,70,77,1
0.0010707085812873003,0.0015640042621241834,0.15637140396340599,0.2098062971400053,30,28,71,78,1
0.0012693109285699408,0.001747214293716246,0.1711469208017787,0.23231987649506078,28,28,67,71,1
0.001192660053160141,0.0020181242060236066,0.16780264535214,0.24780105118744042,28,24,69,63,1
0.0012037227385390474,0.0019602653289015905,0.16701973473734652,0.22211765913326592,30,24,67,67,1
0.0010739669405399443,0.001719576637458696,0.14894747936258232,0.21953668840185683,30,28,73,70,1
0.0009897312568506915,0.0014245869618530788,0.133294122124955,0.19065273077687894,42,26,66,71,1
0.0009416862999412085,0.001607798462224287,0.1295578836049071,0.20421531756736444,40,20,68,73,1
0.0009552518332814068,0.001943934064441966,0.13371643691203622,0.22803365244903828,42,22,68,71,1
0.0010241249180366558,0.0021032876136852655,0.1335829679457529,0.21239818946895664,32,18,68,65,1
0.0009424339043226038,0.0024976513663843725,0.13445520016142268,0.23781089347971365,42,26,75,65,1
0.0011152734791482495,0.002403871038192706,0.14888429891707428,0.22355036602886535,42,24,69,68,1
0.0011152469414017429,0.0021573129542743342,0.14732284592697875,0.19451087282422802,34,30,66,72,1
0.0012293187417609592,0.0020606846508935102,0.16345879819459505,0.20583535013540938,36,22,65,69,1
0.001243487351478191,0.0018031365724465898,0.16983645483652654,0.18958407685580078,36,20,67,72,1
0.001259804258524614,0.0020539650607327253,0.1655336252692575,0.21563787942665977,32,18,72,67,1
0.0012240351106200691,0.0022338622258396687,0.18112246875847113,0.24987118511304382,36,22,71,60,1
0.0012425590666971418,0.002389485002906904,0.18102660519229205,0.2734653927831638,30,26,71,59,1
0.0011395874358488998,0.002436280175125907,0.17569813458949385,0.2762310822217448,36,30,76,64,1
0.0012941148796143489,0.002349494489079868,0.17174728670844633,0.27353733395064495,36,28,78,66,1
0.0010808687238370639,0.002072946707953561,0.14688683829817079,0.24046248589154928,28,28,79,69,1
0.0010324390796540598,0.002192582018199775,0.13973750269306545,0.23206523904981433,30,22,80,68,1
0.0011767924436162968,0.0023052706239084226,0.142397222851329,0.25717722468707255,34,24,75,60,1
0.0010391362668331716,0.001708771857521818,0.12151959563969027,0.20196075346012932,30,24,68,64,1
0.0008864859210322152,0.0014910956327907619,0.10533052130338522,0.17965768641128005,28,18,69,68,1
0.0005889528960514078,0.001021327010698668,0.07326566089212394,0.1321685848716377,24,16,77,71,1
0.000428030974600403,0.0006529939622722085,0.04953243889890483,0.08741449535498891,26,20,66,73,1
0.0004893210991865779,0.0007074211884486563,0.057783165653683015,0.0965714461997684,30,22,69,76,1
0.0006045939044840617,0.0009171749670936203,0.07323642427720282,0.11448027535302889,31,18,69,75,1
0.0007607601897126574,0.0011924107826270704,0.09734309615895193,0.14554862503111615,34,28,61,75,1
0.0009077334110110831,0.0012923883443159692,0.11815948791430188,0.16806149622573704,26,20,64,80,1
0.0009975271885704234,0.0014535004649686197,0.13698391275382912,0.19406028648122567,26,22,63,74,1
0.00555844883464737,0.0006410543588827706,0.8289739625574697,0.09541674478388809,26,32,66,82,2
0.006110051624845953,0.0012779429808205559,0.974337173885362,0.14224760379911247,28,20,72,73,2
0.007052535926714094,0.0019097551740732477,1.1081428239700286,0.18776259235102905,32,18,71,68,2
0.0070418041848149485,0.002442945936198349,1.1450746354827892,0.2326578504477083,32,24,75,67,2
0.007659812919642336,0.002799090312210844,1.2649306612977176,0.24726859779770194,40,22,75,59,2
0.007913313593031695,0.0026376506739704776,1.246473307008043,0.24080986399290769,38,22,73,59,2
0.007758683302289695,0.002584479135708464,1.1730301313318179,0.2391164119790288,34,20,79,63,2
0.008043190061864956,0.002480368626199334,1.1662691082990742,0.21926105444884816,38,18,74,66,2
0.008347813657224612,0.0025500939117881483,1.1668729264438475,0.25010834074618343,28,22,75,68,2
0.008249683596149433,0.0027992790856804185,1.2845444038975204,0.26926352749376603,32,26,76,62,2
0.008840716738858336,0.0026511606880603505,1.4554942588157669,0.28221205054560344,34,24,75,61,2
0.008956878125427855,0.00345598093624747,1.482429395556584,0.3259023837624713,30,22,75,55,2
0.008701133809208207,0.0033104059248735456,1.4379562435641744,0.3256462747892363,30,20,76,58,2
0.009216724715873007,0.00348392703565331,1.4964612462839497,0.32201430888503196,28,20,79,56,2
0.007864318631837272,0.003883838487127283,1.2872524604335407,0.3418594314424672,28,22,79,62,2
0.007190228854767747,0.0035680924232908196,1.2594828925790333,0.34869345711206634,34,22,82,63,2
0.00798596577601785,0.003722104105135871,1.4008482816871783,0.3740853787223779,36,20,84,68,2
0.00695276585166573,0.00340571493765312,1.2175596124489916,0.3608363057068248,32,22,81,62,2
0.008181711457116925,0.0028452978332720175,1.3036396263540961,0.32692174624728326,26,30,78,63,2
0.00811608683886405,0.0031408558994841696,1.3017573949637882,0.3116816100176425,30,18,75,62,2
0.007628350320019779,0.0030470566167707207,1.1771266430777068,0.2950488108985358,30,16,76,60,2
0.00817943567267472,0.0032382387161495226,1.2188979495188046,0.318111475572887,32,18,71,61,2
0.008695470669855307,0.0038371566365063823,1.2079935986811565,0.3257968136147135,34,18,71,64,2
0.00857437182216647,0.003023096223445513,1.2934767497509219,0.31074155438861006,36,18,70,67,2
0.008299456841285541,0.0030822774763383516,1.2653733054488536,0.2936199037640239,40,18,74,65,2
0.007764203469671743,0.0028029118360424284,1.2785497452313155,0.28178695360116557,40,24,80,63,2
0.006507772493815197,0.003344494266176713,1.136102270064777,0.2942051023422063,32,16,79,62,2
0.005604711489157263,0.004214753068488836,1.0214699319455074,0.3321236132245772,30,18,85,49,2
0.005031879220170597,0.00395438974605097,0.9433041019875654,0.3266513859185155,32,18,81,50,2
0.00529872088731149,0.004749795948357361,0.8748319052936114,0.35506509531828573,30,20,76,51,2
0.005647920416401144,0.004155828800705606,0.9754844288368391,0.33737162080916383,32,16,79,53,2
0.006132898714323134,0.0036561838365717163,0.9377052005139438,0.3364701096572886,28,20,70,55,2
0.006292811584219785,0.0031865865387866003,0.9325641952571784,0.31616465426711055,28,22,76,63,2
0.007275581855025344,0.00328128125457481,1.0506267853086295,0.2985206931068713,24,24,72,58,2
0.006518383482310087,0.0036883073821128943,0.9466797655310294,0.35399779004834325,22,22,69,51,2
0.006217004594524936,0.003837760978568405,0.9243729803186148,0.32880570651843866,30,24,77,50,2
0.005622306447436534,0.003805328899318941,0.9068599192838864,0.31517886878810947,28,24,78,47,2
0.004457574307140807,0.0030848976577753885,0.7433742115896844,0.29350368326926923,28,22,76,56,2
0.00575041491186323,0.0027361993275071684,0.9479705551797254,0.2528303072856781,28,24,76,61,2
0.005037592437392365,0.002524759515681386,0.7582575133561122,0.22220093547956504,18,24,66,53,2
0.005094515532108677,0.0019226674127819671,0.719319741370869,0.1710500916462362,22,16,67,55,2
0.00563044068611889,0.0014826937381347952,0.7465746975843356,0.13361680776278614,24,10,72,62,2
0.004446644493331603,0.0005830771014933983,0.5479858242832616,0.06239828170186183,24,28,65,69,2
0.00548516860887003,0.0006250238226517562,0.6855764089713358,0.0696704177398371,22,28,59,76,2
0.005133686358825692,0.0005925720466170429,0.6720145508265604,0.07177595960052684,26,24,59,78,2
0.005180966196411802,0.000752000276166606,0.7014508007874177,0.07604088380631743,28,22,63,80,2
0.0056141941127452865,0.0007020419735445466,0.7610546821834122,0.07815283787199201,28,22,64,81,2
0.00550184304183027,0.0008167180969749084,0.7925904592662258,0.08162951974735479,32,22,70,76,2
0.00026405643897791596,0.00026302619386233284,0.014829099009699163,0.017297977591189673,17,18,24,46,3
0.0002643060585772406,0.00026628760419880853,0.01481240413988148,0.01751690237630337,18,18,22,42,3
0.0002639164218258539,0.00027272534458925045,0.014941243054448305,0.017952526837129796,17,16,22,42,3
0.00026643251300213647,0.00026733357434439975,0.015166747573439212,0.0175102124044165,18,20,22,45,3
0.0002706166886199776,0.0002660648466981203,0.015312461613026317,0.016609685829245133,17,18,22,43,3
0.000252130282517085,0.00037910817032221934,0.016036953931179068,0.027105074938661468,18,18,20,35,3
0.00033443929553788156,0.000711346847572336,0.023591711612719234,0.06279099552723638,19,8,32,47,3
0.0005406367443500702,0.002449810606745505,0.03726164548133109,0.1792798699466644,20,10,33,31,3
0.0005328629318754308,0.002558259884183284,0.03748063601334194,0.20302336437044008,16,10,35,35,3
0.0005680370423885362,0.0036903779479150107,0.04244565330810444,0.30102185914191926,10,12,47,44,3
0.0005914414603871485,0.004766217323048722,0.04629341225051584,0.3879850657523763,14,14,44,44,3
0.0005978025269738163,0.004772331718518507,0.04891930614845901,0.420575760051092,12,18,52,47,3
0.0005888391831652718,0.0053354802971407435,0.051242337055611493,0.48390896456857135,17,18,54,52,3
0.0005387956193001619,0.004956510932251925,0.0529387512141836,0.4523397657232085,20,16,50,47,3
0.0006716741893901258,0.004724273000683673,0.05954983511383252,0.4461679591983489,18,14,40,54,3
0.0006871715638271152,0.0047520641685739416,0.06434806407775075,0.5086287820762432,16,18,39,52,3
0.0009910083708787553,0.005511257811603229,0.09044310306892511,0.5972266217983343,15,22,48,54,3
0.0009757821928787323,0.006539983129542106,0.09895616223714997,0.73239046863291,22,20,45,59,3
0.0014719959776277837,0.007470765171838062,0.12750993357742574,0.8693144761035008,20,22,54,55,3
0.0016618540865746068,0.007345452772079059,0.15931517350190627,0.8512526443687538,16,20,55,60,3
0.002232945509428103,0.006658883264917517,0.18751750383193333,0.8319785186257439,18,22,58,63,3
0.0023983175959505706,0.006734324507099235,0.21126584190800854,0.882414918422522,18,30,61,61,3
0.003020415833075255,0.005271568771381955,0.22972681252571536,0.7747363816903542,12,30,55,65,3
0.0034006961683300968,0.005391660583637547,0.27133878546779916,0.8391423717490936,12,32,53,67,3
0.0031892047469680566,0.00530991991290334,0.2755376046528071,0.8479439916593552,14,34,54,71,3
0.003253398651327509,0.005520332090828597,0.31307008704450107,0.7794885840218935,14,30,58,74,3
0.003131750931188541,0.005708257469928301,0.31886485272398807,0.8425113850331292,16,34,62,74,3
0.002817244094029747,0.005424723580334385,0.2990766945480845,0.7886240596852208,20,38,61,72,3
0.0030051465114324665,0.005436893983534552,0.3423319011648887,0.7960246088873778,20,40,60,71,3
0.0027761113142804757,0.005415527139235868,0.30758138417694075,0.8091360182107874,22,38,54,71,3
0.002884319386876329,0.005842058259188642,0.3267345917593562,0.7986735682932359,22,32,50,71,3
0.002735761240967474,0.00660680225908279,0.31020396524450805,0.826963656876056,20,30,52,63,3
0.0023021991400388555,0.00667566431616002,0.2551092571130665,0.80164559166,26,28,50,61,3
0.0025248883511384103,0.006114195174753273,0.28669009701997505,0.7605866074480876,26,30,47,63,3
0.0024706187017372798,0.006229920813541872,0.24773408106910355,0.805515443266771,26,30,47,58,3
0.002796660393377868,0.0059467132290968484,0.26601690114414894,0.8042970679029833,24,26,50,61,3
0.002756975622789319,0.0061483005391363725,0.2696284189776729,0.8470332849221445,16,28,50,62,3
0.0031714650880631467,0.0057580170417841255,0.29508444015201735,0.8387369113703614,14,28,46,65,3
0.0034161079122991805,0.00591377275355824,0.34757417101825894,0.7657086905689072,18,24,46,63,3
0.003019305663356398,0.005032437999861575,0.2928224802769389,0.6449651809709337,16,30,43,64,3
0.0025763543277493423,0.0047903328500966975,0.2536391638586177,0.45919231075387784,14,20,39,58,3
0.0016438282109592424,0.003935268722520405,0.15455668474942905,0.39687579671979306,10,16,48,52,3
0.0003146002897835466,0.0031416486720246763,0.030085473660392673,0.29030084765078323,22,16,53,51,3
0.0003036205849485192,0.002628846050569679,0.032669464030456785,0.29696041653610306,22,22,60,66,3
0.00028432510526609016,0.0027473284943998976,0.03281330744553713,0.3377088012666134,28,24,68,68,3
0.00027706754619749054,0.002468334042995757,0.03299325122718749,0.35748569807775193,30,28,68,71,3
0.0004577090479289178,0.003172013334571864,0.0515603921449081,0.4461286334414722,26,30,71,68,3
0.0008361875034150736,0.003397821670594555,0.0800536210886468,0.48051257154506194,10,32,74,62,3
0.00045433936409502307,0.0006245262423207568,0.04146224088771416,0.05659008115954663,16,22,44,74,4
0.00045467870131360937,0.0005506301528981526,0.03991773774380278,0.053460601332320244,16,28,43,74,4
0.0003997238675736607,0.0005356972200682691,0.034213468987173756,0.05399516394279589,14,22,44,67,4
0.00031290593148986505,0.0004353849600049606,0.027912251437204546,0.04720452235500984,14,22,46,77,4
0.0003009975071179834,0.00038219558608853593,0.026098923577369596,0.04675437270425369,14,26,44,79,4
0.0002552745760214287,0.0003771271645559638,0.019916024488643012,0.04570027761710044,23,24,48,76,4
0.00023693513515208114,0.0003095723134218345,0.018040070763370712,0.041661528842069924,20,30,50,82,4
0.00022807668520634337,0.00031718542998874924,0.01579175283145553,0.04420948801925982,21,32,42,76,4
0.00022331278965624928,0.00034418290767816625,0.015377821487091138,0.043621908885064224,18,29,42,74,4
0.00022348906703439645,0.0003386571811748975,0.015369739944817563,0.043816293211386914,23,24,36,81,4
0.00022278234347175674,0.0003255533086228354,0.01489061564650294,0.04203258784740152,18,24,34,81,4
0.00021568733019110693,0.00031941006414107874,0.01456435012800381,0.04293504891498612,21,30,36,78,4
0.00021910322658897784,0.00028680701244790293,0.014677833966998682,0.044169400056115624,16,37,44,86,4
0.00021401238115396594,0.0003051675430279519,0.01432604539234638,0.047273707128627995,20,36,36,85,4
0.00021272330884572146,0.0003200793442047588,0.014289979053535613,0.0499572232688922,18,42,38,87,4
0.0002112771533914951,0.00029874459924601396,0.01428230786015018,0.04728613688377954,20,38,32,90,4
0.00021023627569948701,0.00027639007747827076,0.014529325568749136,0.04638540085637186,20,41,36,86,4
0.0002107654551294096,0.0002689079206803532,0.014607278703843344,0.04309183861531198,22,30,28,94,4
0.00021054579707199182,0.0002577238846828115,0.014854559000053507,0.039383556820732864,20,37,32,95,4
0.00021124409025202729,0.0002858688839767035,0.01474444738663323,0.04044343179865521,20,30,36,98,4
0.0002092042379374146,0.00028059523323833947,0.014829380250149926,0.04119291214183382,18,33,28,89,4
0.0002084175883996468,0.0002612928285063424,0.014905737342474946,0.038677141545303585,20,30,28,79,4
0.00020809681538343946,0.0002822066390071935,0.015269786985834283,0.04254857246729449,18,33,34,76,4
0.0002060178646097109,0.0002784756573798353,0.015623093504612088,0.041162918866248156,22,36,30,76,4
0.00020712372153327028,0.00028737319171193604,0.01570038208621466,0.03997504910533869,20,39,32,76,4
0.0002097288798135622,0.0002935402975407692,0.015558992232003502,0.04231097026803316,24,24,38,80,4
0.00021014562748789857,0.0002946895948172261,0.01520668594716864,0.039560773005348895,20,31,36,84,4
0.0004617343775608936,0.00048183992943383444,0.0294032489476199,0.04924204480084711,20,24,21,78,4
0.0008430904186195231,0.0005976344997212445,0.05116363336443148,0.06074371749435588,10,26,27,70,4
0.0008333185411463476,0.0006870609208208524,0.05444852921967806,0.071757285432821,12,28,34,62,4
0.0008193279463052402,0.000670746235323479,0.054459431394075275,0.07267950245933719,8,26,43,70,4
0.0006840577343475114,0.0006808504452170132,0.04669089596088274,0.07942652339579206,7,30,48,63,4
0.0003385378352864792,0.00060578623143034,0.03220605153251411,0.07400484703564607,26,26,57,62,4
0.0003186557657003449,0.0006565216223823934,0.027108361875976046,0.07086328907017794,26,22,46,62,4
0.00027215547662833614,0.0005614940009127152,0.02191451550600541,0.0635227400067711,16,20,43,60,4
0.00026422288661549423,0.0004963096787970272,0.02042147677191915,0.05818766301202166,21,22,38,67,4
0.00023073745293099936,0.0004370873033758347,0.01484339977528653,0.05166578598158603,16,22,30,63,4
0.00022242941521113192,0.0003795062825327382,0.014472073541684225,0.05048486892828687,23,28,27,67,4
0.00022068452447961587,0.00046165299496196265,0.014335711781619994,0.0615078481183196,18,26,26,64,4
0.0002171705806086697,0.00043150844937403656,0.014253424880683806,0.05267778088776214,21,28,24,68,4
0.00021403414061820379,0.00046188796932442814,0.014621355974256931,0.0575471768578141,18,26,31,76,4
0.00021387614452987686,0.0004372650076981766,0.01523224804026158,0.05608334805059163,21,26,30,73,4
0.0002122654088695153,0.00035941202091955524,0.015413490396361472,0.04656385652323991,18,33,32,83,4
0.00021542134915009884,0.0003749709526518007,0.015274820705467543,0.048574846936925174,23,30,32,86,4
0.00021615578555342287,0.00035512775911911355,0.014910490257603215,0.03971393118984911,20,26,30,84,4
0.00021326479283696035,0.0003457665618552422,0.014630011300355735,0.04000466133408591,21,22,30,77,4
0.00021397949566955097,0.0003453459758835252,0.014336485596157949,0.041690874356442496,16,28,24,64,4
0.00020825746590393473,0.00035274048614883683,0.014252457385673422,0.044592933289997666,20,24,30,67,4
0.00218795504064284,0.0033046118569167483,0.3288524768963623,0.3676863702455204,32,24,69,67,0
0.0023336649928543014,0.003477144201422961,0.32599857616298933,0.35842435611633755,26,20,66,63,0
0.002759818999501403,0.0033826773830101593,0.35254736962999683,0.35591782801333416,26,24,67,65,0
0.002987672568513697,0.0035751350048211085,0.3591755949549562,0.37471392557002525,20,24,63,59,0
0.0030913792685773626,0.0036560150173690336,0.3971047544616597,0.38539724787276425,20,26,63,59,0
0.0027715648634706476,0.0036587517395909996,0.3624111574174941,0.39056991528836205,20,22,62,54,0
0.002713469908174817,0.0030127920003923015,0.3514455347985883,0.3559892537205554,20,24,63,66,0
0.002348305206374612,0.0028031298083217265,0.3215466872633806,0.33378961833892595,22,26,72,68,0
0.0023865573255726687,0.0026981755835037906,0.2849664365560566,0.3085052846842569,20,28,67,71,0
0.0026837688044633145,0.003034227594101913,0.3117047354245523,0.311721385407849,22,30,59,65,0
0.0032708917588196483,0.003182264325909556,0.38149644118376663,0.3333109573322442,26,26,58,57,0
0.003664793332032764,0.0033767540405179055,0.4533272322497998,0.32787280788991685,26,24,54,52,0
0.004321860731338216,0.0032098146675426276,0.5480594376330576,0.3216060178468311,28,28,51,56,0
0.004150307473776475,0.003656491189154937,0.5525352891555232,0.33129411132725006,26,20,60,57,0
0.0045716221230258924,0.0036402307582000084,0.608969700903993,0.3359869887937597,22,20,59,58,0
0.004125163269796286,0.00359940352139742,0.5668568327774421,0.3376063550909564,18,20,60,58,0
0.0036140459510296758,0.0034902116649240867,0.4834757541525023,0.3352680759314441,26,22,63,59,0
0.004021003041422007,0.00299674207335682,0.5211204128834308,0.33370067906398854,26,24,61,63,0
0.00292138192750371,0.002916248145474768,0.4056116599819356,0.34356524544846145,24,28,64,63,0
0.0035695590436371737,0.0033234044059196077,0.47101237776054217,0.3864585819161419,22,28,59,63,0
0.003930550955602044,0.00293317537099981,0.5069905704919299,0.36947984243526566,18,34,60,65,0
0.004101532197058269,0.0030118131996861486,0.5689470869980943,0.359647639900464,18,28,57,64,0
0.004746116577009616,0.0031488343126807967,0.6008941469598823,0.36412282498853715,20,28,54,64,0
0.004457619007460933,0.0031029841397312956,0.6017006147540648,0.3566690306839576,26,30,58,57,0
0.004979186323092668,0.0035604517588720195,0.6510371287886766,0.3866183204944266,26,26,56,58,0
0.00454663120419083,0.0037529224794776144,0.6100893139853936,0.3956948514098157,28,28,66,53,0
0.004527298910453284,0.003810731290460276,0.5888350691229739,0.388499208091548,24,26,63,50,0
0.004151188561440114,0.003845099188085155,0.5441734491793058,0.38756063984129524,26,26,65,53,0
0.003764149369553557,0.0037128658311455513,0.5087498308244557,0.3761414927016612,24,18,64,56,0
0.003434472290384214,0.004022353015821628,0.5003897372921118,0.38847272054120463,28,20,60,58,0
0.0038986632032307292,0.00412150717565814,0.5434297578995673,0.4001605110430541,32,18,57,54,0
0.0034658167181819384,0.003880801389219676,0.5329502254267301,0.3833715297957191,30,20,59,58,0
0.003513391579862067,0.0038462024669897736,0.48739428702746257,0.3963779868438481,32,22,62,49,0
0.003596057433436866,0.004134537528274326,0.532222330271186,0.4738563667895503,32,22,62,47,0
0.003218792786874373,0.003875990202638653,0.4741598776474512,0.460648804226732,30,22,65,60,0
0.003357310428286758,0.003658501948892279,0.46927798884263994,0.44960003337576254,30,26,61,60,0
0.0035817861361911313,0.0036191992268467415,0.49172704578715787,0.4439306588837776,30,20,65,62,0
0.003117408632385789,0.0026918276375797684,0.409913590568839,0.3449376876837207,24,30,64,66,0
0.0031845499886220723,0.0030138292262934354,0.40955191392937035,0.34964693865597407,26,22,63,62,0
0.0033245205696688486,0.0031428741818806728,0.4222835297331294,0.35209562198309013,28,24,59,57,0
0.0030200331177288493,0.003080795670194508,0.4213395352603496,0.336588181375334,30,26,61,53,0
0.0032439225115459803,0.0027053372777808148,0.4295745042808473,0.31503212724852453,24,24,66,66,0
0.0027225397256276287,0.002672105531611567,0.3755032340764598,0.3027658640140169,22,32,65,65,0
0.0026846483843506763,0.0026808033044733947,0.37204009818443146,0.32847865788684855,22,26,72,62,0
0.0028571867571243648,0.0029282825966765107,0.3796051993432242,0.3353466164319533,20,22,69,66,0
0.0028365518590836632,0.0035308195331112614,0.3833790454435514,0.36069611585113626,22,24,64,63,0
0.0033895898301723577,0.00370878681719887,0.46925459420600063,0.34824014646158835,26,18,68,67,0
0.003997940351576024,0.0036632625557353055,0.5223254329822202,0.3463965538225446,22,22,59,61,0
0.004129534304590486,0.0033300842186730377,0.5450544707798378,0.3339536184813868,20,20,58,58,0
0.0014801099398320864,0.0018506276578052238,0.19845137932330606,0.22268921281754395,34,26,64,62,1
0.0014797242800469628,0.0017688914661806365,0.1951429187046352,0.22634399830100044,28,30,67,67,1
0.0013287697476152924,0.0017053479821038053,0.18474784748639447,0.225083704833803,42,24,76,69,1
0.001266399578487085,0.0018664159640126487,0.1874052690516679,0.24554334000074807,32,18,76,74,1
0.0013153900127667038,0.0020639608558272386,0.19412885533961416,0.260747860450441,40,28,74,67,1
0.0012788587059663686,0.00184533459948051,0.18080911262786115,0.2367387256364108,40,38,76,71,1
0.0012552427529693077,0.0019267383676182576,0.18298962592002213,0.2639758993760481,38,28,73,72,1
0.0011626637820282145,0.001835922986004393,0.17467157602871397,0.2417555646072992,34,28,77,72,1
0.0013832987395225908,0.00193030204226838,0.1859968243596084,0.26749806284857774,28,24,76,72,1
0.001449932700927324,0.0017691018083025192,0.17082445304975602,0.23712648030211153,26,22,69,74,1
0.0013427239463523427,0.001379818831820412,0.1417923200619801,0.17718262334070561,22,22,65,79,1
0.001131969178907334,0.0011021903438824395,0.11671517354952146,0.14658697791576059,18,22,60,73,1
0.0008182787415122975,0.0007988796849661503,0.08240274518807976,0.10945171212552554,14,28,67,71,1
0.0010409150993771178,0.001022961068917098,0.11560059640819823,0.13886773075111658,18,30,70,68,1
0.001225066163546442,0.00114005180229485,0.13825700104169322,0.15834622149509742,20,32,71,70,1
0.001428602610898459,0.0012740167287485068,0.1737366577813938,0.18889900550456906,28,32,59,71,1
0.0014496380191960376,0.0014281661523827727,0.18205033182374747,0.20337108122192746,22,30,68,68,1
0.0014374148409269825,0.0016264260299413628,0.19284684474709293,0.2092250195366894,24,28,66,63,1
0.001532598695556761,0.0019307987951077091,0.2032874946739064,0.2398533117966484,24,26,68,75,1
0.001542096746802373,0.0021070381751889518,0.21824736848644014,0.27911534711358765,28,26,70,71,1
0.001758689736370895,0.0024082927771137998,0.24908383585661423,0.3221972839515226,30,26,67,77,1
0.0017986641729768923,0.0024885505644122626,0.25215402553740746,0.38310451758274633,26,28,69,82,1
0.0019454606268383113,0.0031511988167575796,0.2706968561898654,0.4100582317302284,30,26,72,75,1
0.001955995965817886,0.003233705590850627,0.2654899123730459,0.39981291913970446,26,26,72,73,1
0.002051011092518238,0.003373930629939367,0.27001955584451764,0.3806833034720901,26,24,73,70,1
0.0022851549477549927,0.0033107915860608305,0.2905528175590755,0.3435566800511488,24,22,70,70,1
0.0023058201505516854,0.0023996594555902445,0.2936051929424344,0.31081497660434804,28,28,66,71,1
0.0025247099108288047,0.0028732691759109875,0.311878758857505,0.34044605416886375,22,20,67,61,1
0.0025917367565306644,0.0026797299060406106,0.3112983742336917,0.34503306115876464,32,22,64,67,1
0.0026389622063050923,0.0026688744414736553,0.3246679799059871,0.341212645610883,30,30,69,67,1
0.002773782357317797,0.0027687768042172645,0.34812962029079214,0.3463030366152143,32,28,65,73,1
0.0025693550966419,0.001971718358777795,0.31564237848309723,0.3115024245820727,30,34,64,74,1
0.0023211193835743415,0.0020194438663085263,0.30711649411286573,0.2960189916149672,28,36,69,72,1
0.0022806180539484485,0.0023271429658669736,0.2907878150691768,0.30510782528702013,32,30,62,70,1
0.0022067880844492305,0.002347080509035049,0.28142270129407715,0.2825710671006883,32,28,58,68,1
0.0026906270056449855,0.0022889593414196817,0.3274842879157225,0.2788224925322172,28,30,57,68,1
0.002562793837969945,0.0026578935542405976,0.30916166334118905,0.298804860461168,26,26,61,63,1
0.0023574122699194498,0.0024347315037512823,0.2911724196987835,0.28499667851221,22,24,68,70,1
0.0020164409459282905,0.002275355751069846,0.26870667312259955,0.2659434927200055,18,20,70,68,1
0.0015664060614819784,0.002078941857505591,0.22686100973677423,0.24586837494615468,28,20,76,75,1
0.0017672377012960853,0.0016737829443530616,0.2661292147408888,0.21291567101750108,32,28,68,81,1
0.002105407161714168,0.0017243990298894942,0.2884873422035716,0.22526397680090207,28,22,70,77,1
0.00216091719578628,0.0019748961273629807,0.3301631735897307,0.26211398705346844,28,26,69,78,1
0.0024616576027545116,0.0019348550610135149,0.36230655804903944,0.2602028346550616,30,24,67,75,1
0.00271581214593258,0.0025383963813415504,0.3673475746941155,0.324885962485389,30,28,66,68,1
0.0027967071159242653,0.0025860310744482452,0.3676447274528298,0.3218520134907707,28,26,61,67,1
0.003115433302066797,0.0031635354418993755,0.38262068575267666,0.3381544567251471,24,20,54,68,1
0.003246388881684551,0.003359093279911592,0.39028612973386945,0.38823034728613737,26,20,58,64,1
0.003302452809291056,0.002882078932017562,0.3917242008196059,0.35131043141427654,22,20,57,70,1
0.006424781188137022,0.0024264490942979946,1.0509528558816341,0.21501707171935808,36,20,82,60,2
0.006368412686340748,0.002454287452023708,1.0226447000251877,0.21718214219395934,34,16,81,60,2
0.006175918416132667,0.0020491821996677807,0.9440656675015231,0.19239162814708882,32,24,83,64,2
0.006675177204007597,0.0024451044225753875,1.034197233702072,0.209021962746795,32,22,82,67,2
0.006294491678900186,0.0022219800719072962,0.9236861513083493,0.21242233338346178,26,24,85,63,2
0.006311644172421188,0.0018960940871324745,0.9907027102746628,0.1731835576594623,32,16,81,74,2
0.007362691573132289,0.0018622983924788034,1.1868297876797804,0.19044896319509425,30,16,75,69,2
0.0064140826866708,0.0019998907691656563,1.1267430081492646,0.18039809243876845,38,20,77,65,2
0.007579621825106142,0.002100518437659509,1.3015158290404474,0.1844598637336536,38,21,77,62,2
0.006509964458516989,0.0018100080997001638,1.0866341668886235,0.16807110976187645,36,20,71,63,2
0.00554348356009359,0.0014121457091844252,0.8688468032361585,0.12075892458134592,28,18,68,61,2
0.004470715374405757,0.0010594129815486616,0.6315031531400463,0.09307387377447697,30,10,64,70,2
0.002995892879579859,0.00038122714409487827,0.3708157589868822,0.05278526010035843,30,38,59,85,2
0.0030638374643420594,0.0004547238929353022,0.40749170004540053,0.05402732430726832,34,32,66,87,2
0.0035771182559961308,0.00045796520634082557,0.4741275266141664,0.06282393371738602,32,32,71,84,2
0.003730128289690113,0.0005167191608923262,0.5434091173981395,0.07453851392791366,30,30,73,87,2
0.0043878104526327,0.0006006742262517858,0.6621859141904798,0.08739324589809319,28,32,77,82,2
0.0051272553110116885,0.0006037470730143265,0.7459476494166073,0.09541936755418672,26,46,78,81,2
0.006278993742978343,0.0006419526520127764,0.9339186381226832,0.10567885997520353,28,44,79,81,2
0.006303059305492271,0.0006923881269303895,0.9805095133853152,0.11561012344345654,32,32,76,75,2
0.0065238060148007995,0.0007899678868824853,1.0516055870990675,0.1250180783899341,36,30,79,85,2
0.006588435119003682,0.0009724782276269505,1.0460895666056662,0.14344549567192597,30,38,75,82,2
0.0059302570741943065,0.001214534217569202,0.972047806536163,0.14940390496716335,30,32,75,77,2
0.00660149302088628,0.0015977446584916723,0.9866375517706637,0.17395251039854892,30,22,71,74,2
0.0064664246067476176,0.0017126169282730985,0.994730656584872,0.17611169597206208,34,22,70,71,2
0.007064626710728435,0.0018495092520416853,1.0649333051921341,0.18310683198794941,30,16,66,71,2
0.007315402710924196,0.0016947687410462991,1.1175499181086046,0.17874402669477063,38,16,66,69,2
0.006945789926365531,0.0013607295609214286,1.104326871237159,0.15460771717279995,36,18,71,74,2
0.0069044052746553885,0.0011930976274766563,1.0693780228845375,0.14880243425164535,32,24,71,75,2
0.006341345072959659,0.0010964631396822445,1.0464336491102422,0.13040770950271774,40,26,71,78,2
0.006061872062179345,0.0012352915513452682,0.9589698256780159,0.1401660111101068,32,24,79,73,2
0.0066989558890532385,0.001305454518490419,1.0356533558992487,0.14140450242956482,34,26,73,73,2
0.006481633666735762,0.0015712926617675413,1.0682694356751223,0.1459482234606842,30,22,75,72,2
0.007035545934164844,0.0017551872040146139,1.1575703871531506,0.17872174610921343,30,20,74,74,2
0.00831856090701171,0.00218897718741543,1.2563605706012362,0.20739947365002587,36,22,73,69,2
0.008462445878513943,0.0025793318080534083,1.269586716279373,0.22479593251186938,40,20,77,65,2
0.008770643434502503,0.0023093344945570755,1.315889124262137,0.22146403972564802,40,18,73,62,2
0.00940533250185279,0.0026543298492255254,1.3575436789176687,0.21946517972369262,34,22,68,53,2
0.007736879813552907,0.002375299824029613,1.2377033277583633,0.20649096519751425,32,20,75,56,2
0.007702262895788327,0.002516901625477123,1.2801597802478324,0.21507892055442412,34,22,68,54,2
0.007368717485072535,0.002516274584462365,1.2683550760562208,0.2259193083522497,38,16,74,61,2
0.00656427134551004,0.0023045385104987787,1.0920627854097225,0.22219093553220345,34,26,71,59,2
0.006843905320062459,0.0022348870194816685,1.2043040097277682,0.2095248731773357,32,24,71,65,2
0.00680953603014835,0.0023343592030559313,1.1793318870691187,0.21572551446640742,28,22,77,66,2
0.006922981971154989,0.0023396486417642075,1.1735511583333174,0.22093825532300332,28,24,79,61,2
0.0073941029671773725,0.0029926627846079755,1.1923984832859378,0.25350724763874954,34,20,78,57,2
0.007276394790777975,0.002672381387776358,1.1387751870146645,0.24065551125831755,28,28,75,60,2
0.007739519875382478,0.002600846323808503,1.1477557585586473,0.2254577737105788,34,26,77,61,2
0.007232561056345941,0.002276412491554916,1.0758264202382883,0.22501305492585294,30,18,80,59,2
0.002574998843716168,0.007484276423956502,0.2823628256039214,0.922450527086793,16,32,60,54,3
0.0022157345248200273,0.007413636030359602,0.22727057531662384,0.9120585892655475,12,28,74,54,3
0.0028981442839115697,0.007923659961566869,0.2912361317267005,0.9028118855662427,12,28,65,53,3
0.002263827587316207,0.007740880409912252,0.22927085625185567,0.8704418545994284,14,30,68,58,3
0.002589598523643,0.006907248901596881,0.27465189504684917,0.8587239659762735,14,28,67,62,3
0.0031206348633357394,0.007290287546704186,0.32439344818319193,0.8288888380987549,10,28,56,58,3
0.00237969575181679,0.0061462474166160495,0.24982346031553881,0.787408307178852,14,26,57,63,3
0.0025851352241760177,0.005883050354963568,0.26145854250746586,0.711234051777243,12,22,55,63,3
0.0026383351809585506,0.006243310476288599,0.24692763466626153,0.716275004097498,10,22,61,65,3
0.0019289828136086144,0.005154470609389869,0.17902020309432407,0.6330775797359512,14,22,66,62,3
0.0018695227976142698,0.004791068395759267,0.17792739954201794,0.5708263627837675,14,24,66,59,3
0.0013541646258037917,0.00471510564477381,0.12744062181256988,0.534417376755611,14,20,67,58,3
0.0007643957802866118,0.004231125907121566,0.07687710854187775,0.5362649301505041,16,24,70,60,3
0.0012870275375523458,0.004136180875186692,0.11092941886490182,0.5723818531843036,12,22,49,65,3
0.0014141506821790772,0.004752823578502714,0.1268685232230235,0.6129902265884116,10,22,52,66,3
0.001888631973491187,0.005289919301684284,0.1877138469745734,0.6934554943816438,14,28,53,63,3
0.0022592775474178724,0.005388172446064667,0.23324144397131968,0.695385295604916,14,24,55,66,3
0.002481050708459658,0.006204424427088381,0.2663791703210039,0.7354863883962645,18,24,54,61,3
0.0030546493705891934,0.006028715497404822,0.3029350439188017,0.7935964890421994,18,32,51,62,3
0.0025935115024850906,0.00590729029093903,0.2865783997995959,0.7414004632395156,18,24,53,62,3
0.002783262780587656,0.005554889602347155,0.31073646278872064,0.7452236125651834,20,30,53,59,3
0.00308374857498348,0.004886766625250041,0.332636261641275,0.6930920876932471,16,34,53,63,3
0.003085135607108331,0.004655694021768794,0.3355302087390789,0.657805206370106,20,34,56,66,3
0.003125026033915068,0.004800632464957699,0.32062572479451334,0.6948030798807341,20,28,52,65,3
0.0028201793378453783,0.004547504015783781,0.2989864323858198,0.6774404142615307,20,28,56,69,3
0.0027592716284440804,0.004531784295508267,0.3123272294565787,0.6726836183600704,20,30,51,69,3
0.0025822234032367823,0.005052447979818639,0.2668325080799481,0.6629284146879034,20,20,53,72,3
0.002643764955291737,0.00530172765086931,0.2979816366061097,0.6577570659707541,18,24,48,68,3
0.0029086687641358055,0.0060655931814566156,0.30007151924880704,0.6786147176228731,16,24,48,63,3
0.0027680251558513187,0.005765058524076006,0.2632651092832323,0.6782873912674782,20,26,48,62,3
0.0036467869349409883,0.005820311346069937,0.329161026333944,0.6765743557119894,20,30,47,56,3
0.0036713141247564883,0.0051186746769521126,0.3234316579539336,0.6222994544720323,18,30,47,61,3
0.0030440961148433714,0.0047795316627736424,0.3093613444943338,0.5973588151850743,20,30,49,66,3
0.002831974108614472,0.005022390927325474,0.3123281940450215,0.6386550500944398,22,26,54,65,3
0.0020438831733646736,0.005543129893596403,0.24797295126815289,0.6895918641394055,22,26,63,63,3
0.0019440371376735328,0.005976222559595663,0.25101600202920565,0.7384235874388227,20,30,62,60,3
0.002452181328631087,0.005629834905270108,0.2812200457574655,0.7633266605250992,20,28,54,63,3
0.002291232988508114,0.005824694593677975,0.24849010463400162,0.7269333614654869,14,26,54,60,3
0.003184266585275881,0.006120804780662192,0.3113542838329589,0.7722767498877412,20,26,47,61,3
0.0031366808163482696,0.00645978089596101,0.30669403149100477,0.7781452334190858,18,28,54,53,3
0.0026953832066540905,0.006573392223864015,0.2851319630853574,0.7359417533074399,12,26,50,48,3
0.002981432514521472,0.006097352835730312,0.3138155074092752,0.7270468717082675,18,26,49,59,3
0.002628439108017809,0.005663193473207628,0.29021079656977244,0.6127250271997492,16,20,53,63,3
0.002960854631816404,0.005523646676311956,0.3229125679380467,0.6981951582651968,20,26,50,61,3
0.0029928119698671312,0.005620608430085741,0.31247866121946116,0.7665117165622244,20,26,56,61,3
0.0028923009820620987,0.0061823644826175025,0.30153314803570225,0.8150922466772123,20,26,56,67,3
0.0023566967375142607,0.00555005543246927,0.24778500370955167,0.7815868511779028,18,30,60,71,3
0.002504118676934925,0.00486320451280772,0.2872239219475253,0.7428739228425228,20,38,59,76,3
0.0025487104964680373,0.004711417587986846,0.28995751233019823,0.7011527339382417,18,36,54,69,3
0.00027024243880529984,0.0002730772473831063,0.019354310786923613,0.024787408943027018,18,18,37,48,4
0.00025130530735185085,0.0002666887690268453,0.014499896163413298,0.022265606545260358,18,20,22,44,4
0.00024549528653796586,0.00025205472145269043,0.01519320954140532,0.02198404165258791,18,22,24,44,4
0.0002878921647175436,0.0002428437850453901,0.018540925876274067,0.02119784450994205,14,18,36,44,4
0.00028466079101391615,0.00027334714864511554,0.018989416950114534,0.021081313807161498,16,20,35,45,4
0.0002887213586360042,0.0002548711794758807,0.023595799736960448,0.022309661642140304,20,20,39,50,4
0.0003068437643579744,0.00028432935024722184,0.024376175793626526,0.022294544209147758,16,22,39,56,4
0.00025000069521537627,0.0002509270599655812,0.019982500130895857,0.020463992344164027,22,22,38,56,4
0.0002469641034591842,0.00023546758728370794,0.020913880419602664,0.019726266629841213,19,22,46,59,4
0.0002293476630719077,0.00022460463822600212,0.017904399808952063,0.01825250283256553,22,18,40,56,4
0.00024899040246829777,0.00023033581703473148,0.020323871635512924,0.01994793830960605,27,22,38,51,4
0.0002521063313964174,0.00021688796180714383,0.022279506375721903,0.02033452150208289,22,22,36,50,4
0.0002556825566943251,0.000239543879799815,0.021296530095337034,0.020779346318021422,22,24,32,48,4
0.0002520128502741069,0.00023396728729234778,0.020346782136491194,0.021125054446931812,22,18,34,50,4
0.0002437292767980451,0.00023469679240886964,0.01858029991989305,0.019401488140337073,20,16,32,44,4
0.00023278380065360607,0.00023356964354731473,0.016038509156710293,0.018348406059836463,16,16,36,52,4
0.000248731534986436,0.00023794867154588908,0.019303813999472102,0.01942354537469791,22,16,36,52,4
0.00023477404449881193,0.0002189741505473395,0.018538344446461227,0.017854007716210527,20,16,36,48,4
0.00036515671880763906,0.00042673163633095995,0.0280342449506861,0.029040535981052464,20,18,35,47,4
0.0005612706379472532,0.0007138195938052496,0.03857488452423926,0.05000051212552287,15,16,48,45,4
0.000569859326428188,0.0007725798536322686,0.039524201435467504,0.05117965873375916,12,16,40,45,4
0.0006235756998859773,0.0006542796597346571,0.03917473857517933,0.05304501421324461,11,22,40,58,4
0.0005486696407085281,0.0006333648122359177,0.04064338081723632,0.05076593938354025,12,18,49,50,4
0.00038842578830333154,0.0005569399923445282,0.030818760950502462,0.03932382457438861,21,15,37,55,4
0.00043985987163296987,0.00043561856148856173,0.031025154375756172,0.0364133669813246,12,18,40,55,4
0.0003977603919774403,0.00047111034362673694,0.030814294897985695,0.03197009145947068,17,17,44,54,4
0.0003463592288303969,0.0003801846115428694,0.024816478152575032,0.02874613493308483,14,18,38,53,4
0.0003373696444355623,0.00031246693387050324,0.02533343550294262,0.02508525115305012,23,25,42,50,4
0.0002736803651700527,0.0003363769353842019,0.019462934036109825,0.02825844896533326,18,28,30,58,4
0.00025730451786489043,0.0003700050265469332,0.01816312253926671,0.025815118594384245,17,19,33,55,4
0.00027657586253041844,0.00033204634768294294,0.01816772428929532,0.026012721534369204,20,18,32,58,4
0.0002770207263046586,0.0003181592796350075,0.018074262651157514,0.02540501436129876,19,23,30,59,4
0.00027462012772479905,0.00026883131608447503,0.017711542232120254,0.022234818453968925,18,24,28,63,4
0.0002702720615057391,0.00027239804948740303,0.01584845563521124,0.023435634062864058,17,24,23,65,4
0.0002732199308538488,0.00027323217753929846,0.015836900990133376,0.024148713306358847,18,24,24,69,4
0.0002724238984003362,0.0002715705194238184,0.01577606659188451,0.02370268514171888,19,26,24,67,4
0.00027272006142081457,0.00026869017868532064,0.015794714369107538,0.023548999198157814,18,28,20,71,4
0.0002737769207151862,0.00027695387688572736,0.01600360235983354,0.025143609878464684,19,20,28,67,4
0.00027662417148122906,0.0002732832977884939,0.01606862754905703,0.022897224924175535,18,26,24,57,4
0.0002785012081307954,0.0002739211943221016,0.015986570393111146,0.021872240821560616,19,22,24,53,4
0.00028056986593160256,0.0002721963002222161,0.015982647973210667,0.022690746120357434,18,24,24,56,4
0.000278086958857304,0.00027591402404762987,0.015823406661973908,0.021970044854160004,17,24,26,53,4
0.00028007996710714017,0.00027833422884717914,0.01603909979724529,0.022348779573196212,18,26,20,51,4
0.0002798246333690542,0.00027020689431201945,0.015761671702826986,0.02336858534721486,17,26,22,56,4
0.00028367978689591947,0.0002769047396653795,0.015596757158334149,0.022313606866651372,18,18,24,55,4
0.0002838873921379123,0.0002610118321782106,0.015598215679223851,0.02050230417499728,17,24,24,59,4
0.0002832663115667136,0.0002600297514230715,0.015660059406318733,0.020303270088957572,18,18,22,56,4
0.00028437314488239,0.00025125916716998455,0.015705107938815875,0.018697314925284984,16,16,20,58,4
0.0002852759151930579,0.000255052657687527,0.01579533000101233,0.01969808571289019,18,20,20,64,4
0.003874433057896367,0.003582513157661952,0.503067674072311,0.3999466097430507,24,30,57,59,0
0.003772736848169711,0.0035399542285112066,0.4908686123282561,0.3926835114115831,24,30,64,57,0
0.004190977411921012,0.003930813020851298,0.5479072149941495,0.45044818165002126,26,28,65,54,0
0.003928510675526921,0.003652549050309018,0.5501845985968319,0.4143650910782192,32,28,64,61,0
0.003897611471667709,0.003783451843728449,0.556494378130499,0.4218540995601851,28,22,66,60,0
0.004107448570133402,0.0037978335226506155,0.5698663464656912,0.44396098796992284,24,20,67,64,0
0.004146590360995083,0.003907391969497937,0.5432894525324025,0.43332736635816693,28,22,70,61,0
0.004125048121692786,0.003949765939055185,0.5345338007176754,0.41600092846010966,30,20,71,55,0
0.0036419821618282368,0.0036504677200051407,0.4855050860955012,0.3936214511749712,28,18,76,65,0
0.0035152741972258607,0.003999355461403013,0.475557445996109,0.42872702554393327,28,20,67,62,0
0.003076360022722211,0.003533882567866631,0.4204946083752374,0.4215645169126338,26,24,65,66,0
0.00303944969497319,0.0038605245293143625,0.4028456189986847,0.4502003889471738,28,28,64,64,0
0.0031427160816450018,0.003713317347769426,0.4159875386785163,0.4570431880872741,26,26,62,59,0
0.002698283094597346,0.003159534983481562,0.35600825091790883,0.37135150009100043,26,24,66,61,0
0.0029677124202026842,0.003244739969546187,0.39599791833505854,0.374769776003143,20,24,63,62,0
0.002921764342984459,0.0031392523636885783,0.3818875897280716,0.3607060996990777,20,26,61,62,0
0.0026320023195308957,0.003385676556238534,0.34814189108160865,0.380093308734576,22,22,59,58,0
0.0029801532081604886,0.0035456542680658764,0.36433286431334205,0.4090430381866725,24,26,62,59,0
0.0031733656693623533,0.003602221913457666,0.38072672655013473,0.38431920475997516,17,20,64,61,0
0.003276724998325518,0.0038512231015654518,0.44392417984183713,0.4009643927096313,22,24,59,58,0
0.0034165811036240027,0.003551871984632292,0.4478050777306605,0.37802528641360905,24,26,60,56,0
0.00303764374978649,0.003306780019890711,0.4351171409079922,0.3611275901881441,20,26,64,61,0
0.0026731944847888894,0.003440363844262392,0.39462466409942115,0.3800134505350647,32,24,68,55,0
0.0022687606088298744,0.0032892227632848273,0.3423622900647026,0.37297563579832715,34,24,66,61,0
0.0010811054413881421,0.001653997541915798,0.15746508339664664,0.20569671100592465,32,28,68,74,1
0.0011383402472944107,0.0017938099882893043,0.17356116076175443,0.23018434367446564,32,26,74,67,1
0.0014911520121041494,0.0019922381585174885,0.20807125919718444,0.2459124679115988,32,30,71,68,1
0.0013468589693366878,0.0019958597773425545,0.19929877136469237,0.251724617055594,30,28,74,70,1
0.001408621170027366,0.0020291758179413065,0.20960694674012656,0.28003385461376107,32,32,67,69,1
0.0014244393439598018,0.0020054982042013404,0.19933914438708616,0.2775274808078704,36,28,71,68,1
0.0012685146504390632,0.0019073207654269671,0.18090354789907617,0.2639689254410092,38,26,71,77,1
0.0014150519323711493,0.0021851948159006323,0.19475296900455472,0.286271075348233,32,26,68,75,1
0.0014369678970491354,0.0023139336925404306,0.19813843848994298,0.29128251878658046,36,22,68,80,1
0.0014604129772125812,0.0021332983440258526,0.20868902807362827,0.29074655442107783,32,34,70,82,1
0.0013821819699664166,0.0023685953460809077,0.19836070523367177,0.2854499244331752,34,28,73,77,1
0.00132907591376416,0.0022572124136001123,0.19989146462154628,0.27469742362765465,28,24,79,73,1
0.0013526515825154459,0.002388191398274401,0.20065100307710348,0.273595516047517,30,24,80,65,1
0.0013025933475814186,0.002015853104099243,0.2022571575938403,0.2575187405512783,34,26,76,60,1
0.0013187677274073657,0.001940850972229536,0.2072569734882977,0.2571077058648845,28,34,78,63,1
0.0014793710959275408,0.002088101251246014,0.22363205704492667,0.25532976284868475,34,32,74,67,1
0.0014010928014236029,0.002014608216108163,0.21494052110945383,0.23658600181004785,36,26,74,71,1
0.0014833002556683603,0.0023280411869274396,0.22507279801723593,0.26090156612852117,40,28,66,78,1
0.0015194683307039622,0.0023253958453167433,0.2222492665609422,0.2836574699093897,40,28,59,74,1
0.0013709038318661143,0.0021502491914194887,0.20073636367346992,0.28794330304453125,36,30,63,75,1
0.0014405254091145363,0.0022432306102244583,0.1948438446575487,0.2865502436058132,34,26,66,74,1
0.0013361401577274812,0.0024770270580863588,0.18407991013926364,0.2826561219972834,32,28,66,69,1
0.0014542353953886883,0.0022004307883777743,0.19616262199945106,0.24955454481611938,34,26,71,68,1
0.0014481905983723725,0.0021585505081531103,0.19696801323591934,0.2514194617311693,38,26,67,62,1
0.006726718022218082,0.0007441190263032819,1.0431754338129813,0.09478286849403449,32,26,67,73,2
0.007194519061292853,0.0007430477582073126,1.1693744463105313,0.10761107743042497,32,30,66,71,2
0.0072519429542121676,0.0006555705964501272,1.211031414078319,0.10510798096295815,26,38,68,76,2
0.0076429118762955965,0.000624752501087334,1.2905526999342394,0.10480422601930241,28,36,70,82,2
0.007274927436901454,0.0006209931857824072,1.1678793080498833,0.10225959877119933,34,32,72,81,2
0.00664718622105347,0.0006495729047917623,1.0328793936278704,0.09442784234901176,38,30,74,85,2
0.006170718233869911,0.0007132423213119609,0.9490242486586785,0.10031083422430932,32,38,76,90,2
0.006130906669107413,0.001116366884403188,0.9026344318561016,0.11365060951546134,40,30,73,77,2
0.005990661086575377,0.0011576770920286947,0.8660773971595581,0.11577197732585663,36,28,74,77,2
0.006825540768885935,0.0012626319031640923,1.0287017616434795,0.12534031022552508,30,22,74,77,2
0.007930169940395868,0.0015837848836487583,1.1902692650748254,0.14643555505057582,30,24,69,71,2
0.00863178483588657,0.0018957298024503313,1.270052607559968,0.15891414092533418,34,16,67,63,2
0.009531758398576014,0.001972881849096349,1.412060947943131,0.1809004305790149,30,16,70,67,2
0.008566086386936622,0.0027399063062305048,1.294198325958612,0.2099882978361273,30,12,75,51,2
0.008617822398805838,0.0029241167711808254,1.3024852473378412,0.234011426335246,32,14,75,55,2
0.008634508655535235,0.0027281648560060945,1.326370431783684,0.24696740999583097,30,16,76,61,2
0.007989040613716436,0.0031146765650011243,1.2924079225574818,0.2673538100543118,32,20,81,57,2
0.007268381425566723,0.002528100164016056,1.2133650109431533,0.259191852828119,34,22,77,61,2
0.006580596736766046,0.0023753915114475307,1.155971414087273,0.23849000400669373,36,22,79,62,2
0.006885675907761254,0.0027312699562622293,1.1312704179659019,0.24249760008022994,28,22,79,56,2
0.006177279850333232,0.002534396239265138,1.100585661087451,0.23393389084746719,34,22,80,62,2
0.006751417322847072,0.002741160581097876,1.2215341834445306,0.232885236912796,28,22,89,59,2
0.007124974447956848,0.0030677715528022553,1.130959978969994,0.2541569874373029,32,16,82,52,2
0.006632723132110463,0.00251042983995488,1.1627055963604578,0.22724082841457494,38,16,83,59,2
0.0019938456993506743,0.0035824734624591665,0.17287598742619498,0.5238153764075805,8,32,54,60,3
0.0022589394973194744,0.0036392969120857223,0.19533266197514354,0.5286645038347283,10,30,53,61,3
0.0026074373931832136,0.003710079339385304,0.2314377996633024,0.5168715293917082,14,28,54,62,3
0.0027984634586350815,0.003972662569021184,0.24462349855979396,0.5696629611024269,16,26,46,65,3
0.0022791758019360263,0.004477332513538157,0.2200396143134137,0.6133999522591806,16,30,45,64,3
0.002547272705987873,0.004398001491942943,0.24960303512287688,0.6200327511031151,18,32,41,61,3
0.002257875374804395,0.004863728070388996,0.22078481814022496,0.6550318297196893,18,30,43,62,3
0.0021542887275712726,0.004466084314103551,0.21930021918739662,0.6469855813342638,20,30,45,65,3
0.0018128512199081085,0.004691753084585117,0.20065843925275742,0.6325652434987078,18,28,51,73,3
0.0015840298310204023,0.004363981134481429,0.18366538510050387,0.6195040801276284,18,26,60,82,3
0.001952800266561441,0.005311571222398834,0.21151287053235235,0.6700571674295629,16,26,64,72,3
0.0021498430609699563,0.005292462481998277,0.22883739040252923,0.7010973142025453,16,28,61,70,3
0.002101275370524135,0.00511617021775947,0.23820910508676263,0.673006707050226,14,24,63,67,3
0.002122951704743384,0.004902347347780844,0.23741412964473382,0.7007559121346825,16,28,65,66,3
0.0019799880029509457,0.004397266471590935,0.243860383108751,0.6539242580521136,26,28,60,68,3
0.0018851000217598697,0.0043079982452456835,0.2341882317017214,0.6551588372213697,20,32,64,69,3
0.00203114529067461,0.004668539622252036,0.20818952132630533,0.6521181726707215,18,24,54,67,3
0.0019449845775639978,0.0058852890159476244,0.20082524311622152,0.7822713383419192,14,30,53,66,3
0.0019136075849421493,0.006797008911076512,0.19808637725721198,0.8567618035324356,14,24,57,67,3
0.0022335986688342964,0.007468008924293439,0.21570451202941376,0.9353567969338444,20,28,53,65,3
0.002369143803446721,0.008413422774389341,0.265193826919596,1.010993304448159,22,30,50,63,3
0.002846218645908097,0.007630570431163769,0.33365037745324005,0.9666045673080966,26,28,48,66,3
0.002617926046298591,0.007089629814435745,0.3032122540986722,0.9511346421318128,22,32,50,65,3
0.0033939817055514384,0.007676217623137773,0.33638769130268503,0.9444646853562885,18,30,56,54,3
0.00021130928190452194,0.0003723064029311508,0.014085595538909706,0.047512213183342936,18,24,28,68,4
0.00021006046132114248,0.0003532113304146709,0.013904316866187602,0.042450149806787275,20,24,26,71,4
0.0002112114943943022,0.0003403873092498474,0.014013616623927671,0.04140321207082184,18,24,30,72,4
0.0002108633853096603,0.00033159079850052806,0.014028407983493477,0.03469102418459182,20,28,26,75,4
0.00020772605871673374,0.00031849167120122097,0.014047243432855362,0.03477500335628525,20,25,26,75,4
0.00020590448109525773,0.0003445530731007838,0.014054553972650746,0.037574712635978204,22,30,28,72,4
0.00020262827085069227,0.00033904645147448314,0.013943465433612339,0.03821577686080072,20,33,26,68,4
0.00020414355979449608,0.0003279867013985705,0.014118962138546687,0.041701038395131944,20,30,24,69,4
0.00020466533947348993,0.00031315418278991103,0.014344997616082895,0.03908467033840438,20,29,24,62,4
0.000205724589574329,0.0003046844162016862,0.014488525583481297,0.035443959019139604,20,28,24,62,4
0.001178934082761162,0.00038451289491121094,0.06262630230876472,0.03815795391370078,3,29,47,55,4
0.0012420341939827174,0.0005344604651540364,0.07129190193185712,0.05408149517092493,4,28,41,58,4
0.001685564409823726,0.0006698164242219966,0.09279699643586847,0.06469747518392649,6,28,31,54,4
0.0016154302606950996,0.0006900096238848648,0.09097131358176512,0.06731270753176244,6,22,31,51,4
0.0009251668263544229,0.0007441171196518022,0.060798317130580225,0.06571921670203502,10,16,48,54,4
0.00034780757685214,0.0007157370742625228,0.025476354479558986,0.05634664339556971,16,14,40,53,4
0.00041130356347246716,0.0006504740291997837,0.034223172919239556,0.04713922571174577,18,14,46,48,4
0.00037675847637060473,0.0006110667474154585,0.031216544248271777,0.04288261437028515,14,16,35,54,4
0.000357007305650115,0.0004980703319945207,0.029077458262728152,0.03766029318579587,20,18,31,63,4
0.00035407314951977476,0.00043621177658294784,0.031056358427461794,0.030494571051442702,26,12,39,58,4
0.0003038346246664707,0.00044536113255751625,0.022415915842536955,0.03131221390092471,22,16,34,50,4
0.0003115062749302526,0.00037481255781733863,0.027243595441625506,0.030394418573586757,28,18,36,52,4
0.0002846309394502078,0.00031436238471791334,0.024191537048531803,0.027389293868304278,24,22,38,48,4
0.0002844045304113168,0.00031975814671096413,0.02116391821845958,0.02805603526630471,22,20,41,40,4
