f1ch1,f1ch2,f2ch1,f2ch2,f3ch1,f3ch2,f4ch1,f4ch2,Category
2.398976736542606e-05,0.00017147249556647342,0.003394158349210502,0.016897827723698983,34,8,88,61,0
4.885424730416514e-05,0.0006145868645748594,0.006416163525655364,0.05507508546200651,16,8,80,46,0
6.97797924340498e-05,0.0008597049816815335,0.009378895613528086,0.0886456405919105,22,16,80,52,0
0.0001627726445495603,0.0014906851973190774,0.01812635940101283,0.13974979478615765,14,18,67,49,0
0.0003231061726763927,0.0018927586033452668,0.03251681389231645,0.174602636356595,16,20,60,47,0
0.0004903891932499383,0.0020490734041887144,0.052092407955022464,0.18998033271993273,22,24,60,48,0
0.0006905136877473457,0.002354085449099593,0.06768338439577816,0.21997451208752503,24,20,59,49,0
0.0009799825295973479,0.0023363206115711833,0.09072696001895451,0.22120659642595034,20,20,66,56,0
0.0010434345444834598,0.002506669383469856,0.10988359503426608,0.25392599055254317,22,24,69,52,0
0.0011410218574098635,0.0026455173953152315,0.11523104116793668,0.27940180170589435,26,22,60,59,0
0.0011795811321704567,0.002532691021052788,0.12410040570299365,0.2855665069891634,28,22,59,54,0
0.001095490998403435,0.0024984883457798705,0.11792893568742915,0.299394145185505,26,24,59,64,0
0.0008814668576001112,0.002238772813743841,0.1023499494385396,0.27944787043322733,18,28,65,70,0
0.0008441503013182998,0.002206468273528339,0.10372882080344836,0.269387301796294,22,28,68,71,0
0.0007963727631067602,0.0019014777794151415,0.10424635053041538,0.24829042757341233,24,24,63,69,0
0.0007294970565338416,0.0017127069694414542,0.10176974755987035,0.22086120828912353,32,22,70,64,0
0.0007892046197948556,0.0018468044172695647,0.10622461287483592,0.220720401280602,30,20,67,54,0
0.0007781054074795772,0.0016550348787780994,0.10505198039497374,0.1996603539598434,32,20,71,55,0
0.0007115732037434482,0.0017465939091985425,0.09669788756937758,0.2124805582402993,30,18,78,58,0
0.0007024895142274231,0.0018709575444047358,0.09550562190608297,0.20706075735851784,36,16,70,56,0
0.0007284006513178356,0.0017432376487356962,0.09827480204292152,0.2010150385294049,30,18,67,58,0
0.0007184695322382795,0.001658129736218051,0.09657542747258398,0.18881417237866452,28,16,66,53,0
0.0008222123999584654,0.0015352405144742865,0.1052951831181932,0.18939498083220646,28,16,59,61,0
0.0008016487601516655,0.0015627356622823468,0.1042919717209626,0.19645451123840782,26,20,61,64,0
0.0007103744295531724,0.001554648411908624,0.09573252951626181,0.18554089211162492,24,20,72,68,0
0.0007160434253051275,0.0017915676923190035,0.08663734780311093,0.21073615553075026,24,22,72,66,0
0.0006354792974968945,0.0016789230251687954,0.08166783002934085,0.19415808310804172,30,18,70,67,0
0.0006516077785266212,0.001541768611842055,0.08738741785614071,0.18252948390669668,32,16,73,60,0
0.0006691051467436913,0.0016153767687250408,0.08963442231828667,0.18621264501027154,32,18,69,55,0
0.0007493704063112001,0.001453905766164827,0.0909222729633173,0.17237191783367753,34,18,62,58,0
0.0006408614160899925,0.00137931434244751,0.08224517646302157,0.16890352980357157,32,16,66,60,0
0.0005666478958963598,0.0014815439621594084,0.07213397527059459,0.18089756964003129,28,18,73,59,0
0.0006032022018292633,0.001477078010527541,0.07634282212309454,0.19257355593415565,30,24,75,61,0
0.000567535859564031,0.0015171657312890113,0.07755805397862948,0.18859444319413282,30,28,77,59,0
0.0006277997894650374,0.0016808533993099939,0.08081324460419816,0.17559888889243142,28,26,67,59,0
0.0006859831694767541,0.0018779226783990134,0.08382541298103638,0.20320654580019065,28,24,67,57,0
0.0006605097428308174,0.0018598352665708834,0.08052391686878504,0.19970360958949912,26,24,68,55,0
0.0007335559083391191,0.0017538127241489186,0.07942209830375581,0.19633551177866954,28,26,67,57,0
0.0007210475024491333,0.0017369866051516805,0.08487811994925196,0.2154322030387516,26,26,67,61,0
0.0006179514166080351,0.0014485315967322347,0.0769250051339754,0.16769120689472017,24,36,67,66,0
0.0006235540825493223,0.0015261265673895627,0.07354771565531322,0.16440365270767787,26,28,62,62,0
0.0005914261246250552,0.001373614985334204,0.06872541690149456,0.15819683247772495,30,26,66,65,0
0.0005075624813801547,0.001368193484875546,0.05569126054858783,0.14511560065440282,36,24,66,67,0
0.0005737760548544859,0.0014840002408033851,0.06445099112960358,0.17605379516420622,30,24,63,63,0
0.0005589298788294648,0.0014339265650471977,0.06547732674341877,0.18659780431874257,22,24,65,65,0
0.0005404645264737625,0.0016688146637179146,0.06531687347625442,0.19106720637658145,22,18,73,56,0
0.000581427350173419,0.0016952998694225092,0.06675179653245535,0.19151294598810883,24,20,75,54,0
0.0005448608896005694,0.0015987211037102283,0.0622905791426964,0.17016669440378682,22,20,70,59,0
0.00011866132521444189,0.0005070565911304346,0.011296286373671643,0.05649449889750645,16,20,70,54,1
0.00031736251928136727,0.0006242113779311424,0.03175891948309566,0.07614527222819686,8,26,79,62,1
0.0005374530680207927,0.0008321141829280213,0.05623106515128949,0.09773497913628679,16,22,58,58,1
0.0009626685308073051,0.001002299775316142,0.09880742550814668,0.11643884300733723,16,24,57,63,1
0.00111369579713641,0.001178267010401267,0.12151594579226148,0.13111609768915683,28,22,68,66,1
0.0011733562430573234,0.0012166060048028101,0.1234410222808087,0.14160670960438573,28,20,70,63,1
0.001270116447702273,0.0010368281361485157,0.12579152656757342,0.12422620139139645,22,22,71,68,1
0.0010738812030907695,0.001038081552620532,0.10929576748440084,0.14359433188967716,22,20,65,61,1
0.0009309130742971652,0.0009160527153003061,0.10707525282375306,0.1313624401161926,26,24,75,60,1
0.0008527901216203171,0.0010721139713766184,0.10623668122118043,0.13774042528887473,32,20,72,60,1
0.0011614373851148595,0.0010992843360793645,0.13070208883254145,0.1507847137961277,32,26,66,62,1
0.0009257290109636072,0.001049932266016437,0.11404037533080834,0.1360590834949462,28,26,72,66,1
0.0009199968586759292,0.0009758672328235131,0.11674414620621044,0.13102674591786256,28,26,62,73,1
0.0008547647900062299,0.0009459505458039554,0.10802489084073735,0.11662467470027986,24,20,60,73,1
0.0006144520118441856,0.0008745896506738584,0.07612720342701154,0.11041987104158252,28,30,63,74,1
0.0007245384734026482,0.0007051342084657932,0.09480284752291093,0.0978668930279607,30,30,67,71,1
0.0007206789476832646,0.0007680273778089764,0.0905408325387856,0.10672510146590086,20,30,72,72,1
0.0008409944905499035,0.0008121653248413811,0.10576467430443792,0.11588478725120537,22,24,66,75,1
0.0008875945994116202,0.0008292406112393965,0.12077189979825101,0.11922531536084305,26,24,66,64,1
0.0009367913436390108,0.0009308191009178445,0.12334577929426856,0.12191808202186437,24,20,66,64,1
0.0010060603127975843,0.0009321167424282284,0.12991845685184825,0.1270100618795006,26,22,62,65,1
0.001023477156245132,0.0009264993172898435,0.13873581533057014,0.12458868360337245,30,26,59,72,1
0.0009703858198661725,0.0009297097395337442,0.13112109810384484,0.12738698121100672,34,26,61,63,1
0.0008586799838118005,0.0010437907610477656,0.12167198506135952,0.1393961308961156,34,28,64,69,1
0.0008232679890753481,0.0008247130290190984,0.12069488049666574,0.12546410106020014,34,32,73,70,1
0.0007971676407092002,0.0008036901515515207,0.11409260793423195,0.1255778866434199,36,32,74,73,1
0.0008728153567879474,0.0008522352106852671,0.11871951763680957,0.12081428506757791,32,26,76,73,1
0.0010094645828578957,0.0009822148350586,0.13065579918698597,0.12586451372352803,26,24,72,70,1
0.001070205392721308,0.000995964327420688,0.1334387434136602,0.1386261839376851,26,30,74,70,1
0.0012684068145196858,0.0009669857406303216,0.16842680308032373,0.12286765336498305,26,22,70,73,1
0.0013712804562980637,0.0009554977036179105,0.17141903910502035,0.12822779268718631,30,26,62,73,1
0.0015897678101208185,0.0009246346495033193,0.1922426302221244,0.12619771192561122,24,28,64,73,1
0.0015540113186349883,0.0009986184002518767,0.19651130518344928,0.13147726307181162,28,24,65,73,1
0.0013927402898127946,0.0011813231690295698,0.16383070534992908,0.15637923385328661,26,28,66,67,1
0.0012589047917254917,0.0010586869213119313,0.16730196001678124,0.15164995034968168,26,30,71,68,1
0.001091990220153078,0.0011383651413123998,0.14433228691218392,0.1568186622808645,30,32,74,65,1
0.0011328077056721435,0.001102923266579978,0.1513067726779667,0.15752539108272462,28,28,70,64,1
0.0010712439535351776,0.0009256641801049166,0.14698556802920495,0.1432035180426757,28,30,66,68,1
0.0010566916982304355,0.0009805655638331374,0.14155583805319685,0.15384253542760137,32,34,59,64,1
0.0009592637296918459,0.001072547227891756,0.12087365949886537,0.14163700415732464,28,26,57,73,1
0.00068423852990803,0.0010204906838893316,0.08216046077017893,0.12185001307623379,22,28,60,72,1
0.0005971476686082595,0.00095933022636816,0.060054384517688866,0.1043892434045562,14,22,61,53,1
0.00043153347694639883,0.0006423197881181965,0.04451680069994384,0.06897010873127325,14,20,63,52,1
0.0007825610826802195,0.0008414247924317521,0.09093452042950322,0.0904971698362763,20,22,58,54,1
0.0011028355938559372,0.0008704737824267811,0.1277923510713982,0.09918305083134812,24,28,48,54,1
0.0011748638321698952,0.0009348472681533504,0.14339821034362082,0.1112557324055042,24,26,52,59,1
0.001315659701337956,0.0009352755440774629,0.1521447239236106,0.11828288253474213,20,30,53,63,1
0.0009553674312816197,0.0008289366200111017,0.11742962096509713,0.11388307862443565,16,30,59,68,1
0.00027494931266446254,0.00010456837692385907,0.030949960892531474,0.01166897377661933,28,22,65,73,2
0.0004842021446464123,0.00013640211526225377,0.05223085395942575,0.014247220544777912,12,20,67,73,2
0.000556371839222544,0.0001269273281139742,0.062445100849908716,0.016326110347257027,16,28,61,83,2
0.0007720379628529563,0.0002218144120014969,0.0836299931150535,0.023721074500141746,14,18,66,72,2
0.0008535265070845657,0.0003785802145306064,0.08745858161375157,0.040383801653278734,12,12,58,71,2
0.0009170727107534722,0.0004164634554381999,0.09613894691974523,0.04528882601158521,20,18,61,75,2
0.0008604010185980915,0.0005026826820025338,0.09429008886798206,0.057411646726730686,18,20,60,66,2
0.0009961497306115712,0.0005408988687295337,0.10859985537276919,0.061338241688595085,16,20,73,68,2
0.0010172752025200357,0.0004032139468438452,0.13485747486377764,0.05210142673943259,20,24,73,71,2
0.0010741187291662118,0.000379295023447834,0.14973842193486397,0.0546772941156635,26,22,70,76,2
0.0011388315770798829,0.00036933886929554265,0.16611962850891143,0.045855739867996057,32,22,73,73,2
0.0010808051667727866,0.00029492761370708234,0.16552566404476787,0.04219921445736143,36,22,74,85,2
0.0010159676927303165,0.00030751932582703963,0.15046454668261122,0.03873610757723503,28,26,75,85,2
0.0008582052562627265,0.00024127201042153473,0.13741665065565378,0.03486573649530874,38,36,81,85,2
0.0008828956838963563,0.00023237373106657405,0.13880554036891687,0.03811138729651244,26,42,87,82,2
0.0008568600463294764,0.00026236084544591516,0.1351610587673885,0.03931531513874072,28,40,77,76,2
0.0009042925684904845,0.00026580223896989567,0.13790934178907271,0.040597522183845325,24,42,79,73,2
0.0008936038370749054,0.00024451319495877056,0.140212032049795,0.04032692537268117,28,42,84,76,2
0.0008951653688343987,0.00023115714424138369,0.14039978082160495,0.03779699116220413,32,38,79,80,2
0.0008963268384372531,0.00022299702457282273,0.14650445285736913,0.036625190747010705,34,34,86,86,2
0.000998294965235498,0.00021946628892136315,0.15964394103262883,0.03983386183222312,30,42,83,85,2
0.001033134794398472,0.00023483493727890947,0.16685261651719188,0.039980221571101884,32,38,75,84,2
0.0010730022074129345,0.0002450105087074871,0.17031380922769124,0.041819852136134976,30,44,74,83,2
0.0010690767674418143,0.00023603551481128713,0.16935817045286514,0.04164141962116283,38,40,68,81,2
0.0010290948758063907,0.00022780652114398058,0.17957260736869987,0.04162174446014366,38,40,71,86,2
0.001066347238453822,0.0002221908190387983,0.17937450959388795,0.042160849468597425,38,40,76,90,2
0.0010978421866799256,0.0002068458816419501,0.176248844819476,0.04089418495920042,32,42,82,91,2
0.001014045848243217,0.00021508063392111176,0.17415286317396383,0.042285648934738025,40,46,86,93,2
0.0009644818233935714,0.00021734579214928353,0.15401644213532725,0.04082115014586004,34,40,86,96,2
0.0008951377836578977,0.00025014140003192854,0.1445004684961999,0.04392886511554487,40,40,87,92,2
0.0008357794606284664,0.00023833288487726056,0.14128559946013072,0.044045257037154714,44,40,92,94,2
0.0009077991346701226,0.0002511279333536735,0.15278203154043643,0.04456998207798512,44,38,88,89,2
0.0009482590833595883,0.00024217925325153097,0.15949513247175007,0.045503631153660115,42,40,93,83,2
0.0009310729428741449,0.00024112818262888577,0.1578908997226527,0.04264080393875273,38,32,91,85,2
0.0010481331835311587,0.00023753878618378612,0.17820109245237714,0.04271738507795389,40,46,84,79,2
0.0010411136774598306,0.00024776018395898067,0.173532112126729,0.043307802563436984,38,44,80,82,2
0.0010618773030466012,0.000268346994056767,0.1777293167608325,0.045076685130800744,40,42,76,79,2
0.001079341626576453,0.00026850233891224077,0.17279596672186986,0.04564179144102972,40,42,79,87,2
0.0009776004908544679,0.00025230479650377316,0.1624193717383858,0.045969012326417244,40,42,79,95,2
0.0008395669641225241,0.00020078421321494914,0.13830215635478474,0.037602954051493824,38,38,83,96,2
0.0007693413920160034,0.00017412629197311824,0.11347822301538103,0.02890851327058976,26,32,79,88,2
0.0007425750209588524,0.00017320523297144374,0.10700111793272872,0.02684897176033035,22,24,78,80,2
0.0007616072721968998,0.00016618737115972208,0.09644867789812686,0.02536985595204106,32,30,69,75,2
0.0009122278896003062,0.00023076624768959798,0.1223697762348588,0.03351915297436598,32,28,74,73,2
0.0010403847447199369,0.00042940815219098913,0.1559856043510635,0.04571928770035125,38,20,74,71,2
0.0012133404206521505,0.00037656511227071506,0.17676696053826363,0.04705180753105073,40,26,79,71,2
0.0012437655730094981,0.00038325797149784226,0.1914270358238434,0.050164505246096995,38,24,84,79,2
0.0012485252754707425,0.00040934545492864947,0.1905874093984168,0.04911950316248765,34,16,75,76,2
0.0001692684757419169,0.0013444308614807422,0.015528691207813458,0.14384982716568015,18,20,61,50,3
0.00023719785547932244,0.0016027006129417918,0.019356376826503367,0.19038534396039977,18,26,52,57,3
0.0002951228359069888,0.0021874749875917775,0.029473277807218867,0.24878594039585644,20,22,53,55,3
0.0002757794020998332,0.0022717296724743246,0.0307335276731423,0.2714366570741567,24,24,60,68,3
0.0002874163497510358,0.0021383854662961666,0.031641568012251806,0.2776122159272887,22,20,58,65,3
0.00023533295697313026,0.0018770047619269385,0.030170318688174942,0.2525119167726905,26,20,62,69,3
0.00018437550925434502,0.0016656870889775735,0.022872284576722468,0.252023845906084,28,34,75,68,3
0.0001866295508055723,0.0015117884093344277,0.022564136349543507,0.239456461624826,26,38,73,66,3
0.00019276768681789636,0.0015840257190939547,0.023522567093970697,0.2583695608154126,26,38,68,67,3
0.00018449049057294977,0.0017477495004390078,0.022378974307966842,0.2810102505201937,30,40,70,68,3
0.00018589506442169855,0.0017270629470127565,0.023302333018646516,0.2853090949648181,32,42,68,70,3
0.00021495569303677824,0.001817777358850461,0.026031700798922208,0.3090756341167492,26,38,67,70,3
0.00018773278101791513,0.0017040199908334621,0.024461464376480523,0.2962771313689151,30,40,71,69,3
0.0002041201599659719,0.0017539015304200792,0.026213245404742548,0.29626671326269644,28,32,62,70,3
0.0002378928168587555,0.0018030967635989557,0.028297701385911384,0.28836311447581575,22,30,60,67,3
0.0002371248636866755,0.0017872820454223433,0.02577687130533366,0.27891708508232455,22,26,60,74,3
0.00024916357120712294,0.0018753837823018325,0.02695159695316558,0.2796625053132329,20,28,65,76,3
0.00023919567888470506,0.0016785484956358548,0.026913190314695544,0.27078005282215845,20,34,66,75,3
0.00021204779771712614,0.001714235735111718,0.026682916362501478,0.2672848614890598,26,36,66,83,3
0.0001990621541199526,0.0017151996680137155,0.026304513776976422,0.2601651981547466,24,34,77,82,3
0.00019179996617001244,0.0017357538914324327,0.02740257563432252,0.28019775409728226,32,36,70,77,3
0.00020100964561583785,0.001909796443927747,0.0281673085246141,0.30082066897657045,28,42,70,74,3
0.00019744587685980943,0.001993649215185869,0.027731773491691546,0.2957520682004424,34,34,76,76,3
0.00019411633742583967,0.0018691383025623608,0.026628403754618724,0.28896063893491947,32,30,74,71,3
0.00021070136434837839,0.001619321848395026,0.02528608896690241,0.2608523042334804,22,40,78,72,3
0.00022844012604093878,0.0016026549045672514,0.02795118340914581,0.26124497933234186,28,40,75,71,3
0.00024160358700737805,0.001479777141735983,0.027793124683723792,0.24892454606272071,24,42,68,75,3
0.00026276777704776496,0.0015837553735148684,0.03158525491203623,0.26721872498566335,24,42,70,83,3
0.0002388629110850097,0.001689114140633208,0.031898205673371385,0.27415754486544286,28,38,73,80,3
0.00022293384674301265,0.001610557538171074,0.028471110739854644,0.24847442505404574,30,36,73,82,3
0.00020814785265504127,0.0017534657880897183,0.030904403460958935,0.27904151443221986,34,40,74,76,3
0.0002015787850278224,0.001800662467945751,0.02906251691455772,0.28666692389930487,30,36,84,74,3
0.0002311047610647851,0.0016328059802502607,0.029612119146055126,0.279396487232374,22,38,76,80,3
0.0002549000599937512,0.0018753926134767037,0.03103381602199101,0.28666528656784346,26,34,78,70,3
0.0002462139256587887,0.001826201191730384,0.030264491632809323,0.2994371027512066,26,36,74,73,3
0.000250244957555913,0.0020032133861837362,0.03298666124519625,0.3188962937256404,30,38,70,75,3
0.0002333943374001337,0.002173436033721809,0.03420437756085545,0.3509123998352074,34,38,70,72,3
0.0002441376705541519,0.002244535595914813,0.035787261132630276,0.36439025219714183,28,40,73,74,3
0.0002661354559318328,0.002159114914587324,0.03356215048434958,0.3229634731951946,30,36,72,76,3
0.0003055019342068203,0.003286545597656944,0.029954935352887666,0.3161864202303909,16,18,63,66,3
0.00028320817492197585,0.003035204702939187,0.026396211096307257,0.26168584216577884,16,16,65,59,3
0.00022429402970252147,0.0030388418696700777,0.02133136014087613,0.24652134254220842,18,12,76,59,3
0.0001627157346346467,0.0015187315962542352,0.019531767293163166,0.19202602632578858,20,24,78,56,3
0.0002526914463330912,0.002011354992511941,0.02680194719855773,0.2813445596695219,18,26,67,57,3
0.0003514367392943266,0.0024800521354288356,0.031935384133060234,0.3301505987804622,20,26,61,60,3
0.0003658407588937302,0.002523678434884087,0.0368356369257322,0.3409888574231974,20,28,56,62,3
0.0003848464082805336,0.002653483656325903,0.037492205047395775,0.35330890523326886,18,30,54,63,3
0.00032230054445233676,0.002484910937864777,0.03525041559757481,0.32235328984112627,22,32,68,68,3
9.119948754116959e-05,0.00023390087504329547,0.006505331719168865,0.022651486812725035,12,16,59,52,4
8.066485182943174e-05,0.00024217305972632438,0.005744748613368783,0.024410611024246864,8,14,73,61,4
6.702288498896523e-05,0.00023471449105778668,0.0052997575249276434,0.02513716916603122,12,18,79,57,4
5.5137932460209704e-05,0.00021002114478400508,0.004824350798657134,0.021135235301866097,10,14,81,58,4
3.611024334871053e-05,0.0001892331200733697,0.004226285479461983,0.020020838946332553,24,12,92,61,4
2.8966189344966172e-05,0.00011579160369106406,0.003733983509212354,0.014591668594742074,28,16,93,69,4
2.4361057985707984e-05,9.554096592425867e-05,0.003519611048551325,0.011913155035316248,30,12,94,80,4
2.6953364073637538e-05,0.00010867793298300836,0.003596150309853401,0.012285100994730406,24,18,91,79,4
2.618199564915784e-05,6.93234466526136e-05,0.0033581027473399898,0.008403037979261065,32,20,91,78,4
2.5999328727185243e-05,8.986706428479048e-05,0.0033335695561954714,0.011447829628746435,30,20,99,74,4
2.52524994401937e-05,7.583827257274067e-05,0.0033102470034677965,0.009309717998852003,36,20,96,72,4
2.3475339242264147e-05,6.742777522642106e-05,0.003534872673445896,0.008518674269945998,30,20,98,70,4
2.4197583642314273e-05,7.046622062695202e-05,0.0034127103712069218,0.00868443057852596,30,18,102,69,4
2.2051614079267534e-05,5.5892384291495916e-05,0.003362561965621573,0.006922418913887871,40,16,92,71,4
2.1325132260488565e-05,5.845957577884164e-05,0.003297383843011214,0.0071824960376768695,36,16,91,74,4
1.9318055793880804e-05,9.487369548470104e-05,0.0031324342428803286,0.010838394753553904,46,14,91,68,4
1.833975502125189e-05,9.742703659797944e-05,0.0030966639953810262,0.010834535631779092,36,12,94,70,4
1.9012930487782497e-05,9.865692887264373e-05,0.0033260159164094413,0.011267485523855566,40,12,102,67,4
2.160830968786974e-05,9.080504253596284e-05,0.0033570626502985295,0.01045359822100411,36,14,105,68,4
2.1311685023586032e-05,7.558326990872784e-05,0.0032847686521938284,0.008837847549477973,34,12,105,75,4
2.5420575908686422e-05,7.517155482354552e-05,0.0034158597129583363,0.00869761979874007,30,16,97,80,4
2.6743358847404467e-05,4.670412447927591e-05,0.003634212178147064,0.0065884517502942325,28,18,94,77,4
2.64867924433598e-05,4.777155444656911e-05,0.003527961308159751,0.006978103615657107,32,20,91,83,4
2.4560910565486847e-05,5.5666269011518335e-05,0.003675025805458819,0.006660341750249336,30,14,96,79,4
2.3378086848067528e-05,6.37289265359201e-05,0.0036209629590205922,0.00658351528229561,28,14,96,71,4
2.2201090438465723e-05,6.879520017495289e-05,0.003464757426173576,0.006872949314511328,26,10,96,74,4
2.1646023979923108e-05,7.436533927072978e-05,0.0034923655210836175,0.007724456437384032,34,10,97,70,4
0.0005590255524168227,0.00011621148854956734,0.031911075101735076,0.013433255721181899,4,14,78,67,4
0.0007890680663051632,0.00016729184562427887,0.04429499679172562,0.015430316292374064,6,10,77,53,4
0.0007995437907828733,0.0001895244231900831,0.04402172899174443,0.017644614533573032,6,16,80,53,4
0.00033722868179598205,0.0002320677291731821,0.01930834336857072,0.02018965443887058,6,16,62,49,4
0.0003178524204931158,0.0002367952847829087,0.01878299840271735,0.025658529854603384,5,16,54,56,4
7.134829060088744e-05,0.00031310194502473987,0.006729172408165114,0.03230200716635355,24,16,77,60,4
8.249112529211287e-05,0.0004906778801212451,0.009366070292213527,0.04379665800409273,22,16,80,44,4
7.780686015639433e-05,0.0005429299625232669,0.009708123026964005,0.04570500101847114,22,18,81,47,4
8.295304551820379e-05,0.0005616904825721858,0.010631915379572589,0.04783835779697876,24,16,75,38,4
8.601478084357135e-05,0.0005851501430496501,0.009054768006796934,0.04994644427639037,22,16,70,41,4
7.754607060202136e-05,0.00044044967088730533,0.007221386069649497,0.04228760029661562,18,14,73,43,4
6.593713648794448e-05,0.0003709548698867449,0.006397188493924213,0.03495455972832165,18,10,82,52,4
5.525992326219007e-05,0.0002877555260310325,0.004814151279566685,0.029544942364675336,12,14,88,57,4
4.8586975122927085e-05,0.00016654626644079437,0.004590657821984634,0.018334990770523505,14,10,93,60,4
3.129001649576606e-05,0.00014249451674448098,0.003630301055595853,0.014679002172564968,22,8,100,66,4
3.494654533939679e-05,0.0001731915738168523,0.003924261025006841,0.01876218364167586,24,14,92,70,4
3.1025933566615664e-05,0.00011136258756914917,0.003615159071667808,0.013957288989678365,28,20,97,71,4
2.9027263722401652e-05,0.00013904487062693665,0.0035486749086843165,0.01609959918106247,30,14,87,61,4
3.5868936075146286e-05,0.00013801465284740805,0.003678250719877357,0.016862960410583126,30,18,81,59,4
3.235379173218655e-05,0.00012678486044203122,0.0034794292936732034,0.013477175776416125,20,16,88,52,4
2.678084032644506e-05,0.00011859189930938714,0.0032992645431685727,0.013434037341895659,22,14,89,63,4
0.0003253360861907516,0.000874515431184473,0.04439721006901724,0.11187945439544117,28,28,67,63,0
0.00029681056320373365,0.0009111792292842706,0.04078699828837121,0.10957551173623258,26,30,65,60,0
0.0003667912808225287,0.0008756940011883017,0.04450142650530753,0.10858357879741672,26,26,63,60,0
0.00035908979413954914,0.0008646344918938521,0.03834710040307864,0.10912743374017021,22,28,66,63,0
0.0003516680255559383,0.0008449086055478137,0.03881337181006971,0.1065746911458986,28,28,73,67,0
0.00038674129267295907,0.0009229245773754101,0.04168441631566624,0.11665022189271301,26,22,68,63,0
0.0003840538032077436,0.000864780736643503,0.04246404487351063,0.10653855279747694,24,22,71,64,0
0.00034287341566405135,0.000990581414183005,0.04352073163793037,0.11769403904060728,32,22,73,60,0
0.00038053534211055775,0.0008972789631712151,0.04917428280355678,0.10495576927162056,24,22,70,58,0
0.0005497520004181312,0.0006597925578600007,0.05211206871912031,0.08132226360540207,16,24,61,65,0
0.0005017302023239824,0.000604964716440479,0.04354228550016533,0.07018508821623759,10,24,68,56,0
0.0004442080315344343,0.0005298727407620302,0.03700975543696477,0.04794770215598247,8,16,62,51,0
0.00013919356028030215,0.0007731587985918051,0.016263009833420147,0.06174181427888253,20,14,61,43,0
0.00024107073855728886,0.0009876148244927726,0.025885337461238698,0.08894611006494813,22,12,57,53,0
0.0003138589820777774,0.0012257011443656523,0.03790529739575574,0.12276919668519372,24,16,65,56,0
0.0004139437638378745,0.001415504455316339,0.051096345328978554,0.14116612685371388,28,20,64,58,0
0.0004873904935342724,0.0013887427863092802,0.06329278273496786,0.16081037260591016,34,20,64,65,0
0.0006322754393732089,0.0014677309290000383,0.07650367477537365,0.1683831558439327,30,22,67,59,0
0.0006351861699104968,0.0014076168173839654,0.07772068660898054,0.15762084401147286,30,18,61,64,0
0.0006694825420092647,0.0016293703479586894,0.07934574685380928,0.17777138426764402,30,20,62,60,0
0.000597897916143365,0.0014396896137815808,0.07380898073690698,0.16031550758238294,28,20,64,56,0
0.0005281099077710759,0.0015693001185866859,0.06804180741460404,0.1731084083406428,30,16,68,56,0
0.0005358734369443718,0.001573366090161945,0.06498047891733787,0.16948095566731278,24,16,66,57,0
0.00047407352527373205,0.001468778078559864,0.059770899292833975,0.1609709078612143,28,18,69,56,0
0.0004731334646379466,0.0014633321557000398,0.05801458049476011,0.17072014939858324,28,16,72,60,0
0.00042174717164481066,0.0014076523959086562,0.05437719398035381,0.15509156521592277,24,16,67,68,0
0.0004027135824001185,0.0014920971662935603,0.051195148966620974,0.17462450258355483,26,16,69,62,0
0.00039670132923139563,0.0017155400210205085,0.05257587879096118,0.18098754790587965,24,20,66,68,0
0.0005230505780185045,0.0021298464961678047,0.057548540171395324,0.2314712262118536,20,18,71,67,0
0.0005358979057290985,0.002086032573623379,0.06611102912320428,0.22778418886585144,26,20,69,63,0
0.0006120112586407489,0.0019923036565941657,0.07136445504979612,0.21274312459316558,30,20,72,64,0
0.0006122441571096191,0.002031747276137051,0.07014541501300814,0.22918773918195293,20,18,68,59,0
0.0005257456219879787,0.0014418507267096525,0.06706707488141024,0.17024374001247464,26,18,67,63,0
0.0004961079929284722,0.001519384377462889,0.06103688399310868,0.17684438613122477,24,22,66,62,0
0.0004899247582064719,0.0016261435137530041,0.056108429725703256,0.17985464008012067,22,18,67,64,0
0.00046667122413541107,0.00136265514268406,0.054148339153671995,0.15421291416414418,32,18,72,67,0
0.00041665617934134777,0.0013138093977605907,0.05118865701206918,0.1555448291589705,30,26,70,72,0
0.0004576922750963736,0.001285616038349526,0.05568270360727268,0.14671369626498304,26,24,71,68,0
0.0004402354345714057,0.0013231285783978505,0.05563847764879284,0.1429918385375217,22,18,70,66,0
0.0004563952107724457,0.001286830231006759,0.055288476789401256,0.1359939345005745,22,24,63,62,0
0.0004794967525183311,0.0011890122736059377,0.057361686696358855,0.13362913207834365,20,24,71,68,0
0.00037858263140763356,0.0010987779889461533,0.04739643998358032,0.12296681459543408,26,20,72,71,0
0.00033449363727161606,0.0010370390767286564,0.044491020513313294,0.13002443381758305,28,24,76,70,0
0.0003035840453751174,0.0010744507899603083,0.04530901499161376,0.14128931611291934,34,24,75,69,0
0.0002656850893354021,0.001024546681609711,0.041326468664709945,0.13612883235258488,38,20,80,67,0
0.00028019548469032906,0.0011937933748806888,0.04180705202082103,0.16290072627799349,34,26,83,60,0
0.00033391701150183863,0.0012282817105748083,0.0437355670108416,0.15339953133373507,32,22,75,59,0
0.0003152231851409157,0.0012533440119583226,0.040953895078958434,0.14561774691220106,32,24,79,64,0
0.0003637300344137986,0.0012333284908674707,0.04461205246624437,0.13961618773458137,30,18,78,56,0
0.0006319897381339834,0.0006834379490255408,0.07873905765759459,0.09656044675494956,20,26,67,63,1
0.0006235933928699147,0.0006190797120541574,0.07812281130770518,0.08558405171461295,22,26,72,63,1
0.000595719972183554,0.0006336085453406306,0.07481703001720283,0.08668943483915115,24,24,67,60,1
0.0005267287893786991,0.0007105454307287012,0.06882932607448118,0.09619680703487095,26,24,64,63,1
0.0006174921248821266,0.0005731200055233345,0.0816205652942441,0.08201416630419203,28,26,66,65,1
0.0006111611302713378,0.0007684403395507801,0.08602137424229149,0.10023065742122728,32,24,61,64,1
0.0006480617760233035,0.0007487345987467321,0.08703385786771556,0.09612667191198118,28,28,62,66,1
0.0007215033822146733,0.0008075639072136266,0.09819623550372585,0.10039903805986924,28,26,67,60,1
0.0006712809010406681,0.0009067939667201836,0.08326417004124974,0.10940734739844818,24,24,72,58,1
0.0007839730004757382,0.0007249439750649428,0.0863196684136728,0.09289588305368657,24,24,69,62,1
0.000777655674601257,0.0007265811164497769,0.0845765039010913,0.09318962793147116,28,24,63,64,1
0.0008785196254541603,0.0008697446153872477,0.08284312584869546,0.11329917729977604,24,18,62,59,1
0.0010062748327736464,0.0010456311367889456,0.10612240036933336,0.12194392867135599,20,22,64,58,1
0.0009467167148320013,0.0010102020559614431,0.10710166250156564,0.1278920171969887,24,22,65,56,1
0.0010677598130063447,0.0010124533967903041,0.12243076994033766,0.13105907372793066,22,28,67,57,1
0.000889630539839211,0.0008082458071562702,0.11405717296741698,0.10704447548602379,26,26,74,57,1
0.0008368669353529598,0.0007785568892813574,0.09791814608972645,0.10429545528457225,22,28,73,61,1
0.000815478644711639,0.0008938668094143229,0.09540799441699517,0.11667135592253694,22,26,78,63,1
0.0007165853394927882,0.0008245972535553238,0.08310583138725691,0.11128862889333122,24,26,74,66,1
0.0007004534357852636,0.0008541600915532539,0.0927296044898541,0.11569588816119031,28,26,69,64,1
0.0007984724302018795,0.0007810518627200398,0.10757876870410536,0.10417043947256152,30,22,66,67,1
0.0007619291801411708,0.000714229240940889,0.10531449418005413,0.09272784731353804,26,22,66,66,1
0.00079030631841246,0.0007958970644906888,0.11704060872365755,0.10194400799209188,24,22,69,68,1
0.0006692122527601476,0.0007608005179494168,0.10399803395092615,0.09770498603106217,30,20,68,68,1
0.0006473492365798042,0.0008028998173900601,0.09256188262516316,0.10311871747993726,30,18,64,70,1
0.0006766270774847351,0.0007435433350657473,0.09614525267540062,0.09224298529891857,26,20,68,67,1
0.0006019438647085332,0.0008273801055412895,0.08072856856363993,0.09561866281665996,30,20,66,61,1
0.000674972353163206,0.0007448123604214113,0.08731160167570358,0.09195092685022471,22,20,67,62,1
0.0006695243982589017,0.0007270010017805778,0.09365600653875895,0.0926482617659516,24,26,70,61,1
0.0007145900420564216,0.0007341580419067149,0.09809862575846476,0.09458842070424335,24,22,62,60,1
0.0007484601900226413,0.0006544983278863981,0.0990474980070266,0.09203199976324551,28,24,69,63,1
0.0006515982243098964,0.0007667957432318418,0.09155096536661794,0.10498345458163169,30,18,69,65,1
0.0006900631827656405,0.0006846067613124301,0.08897912450066907,0.09574571166743243,22,20,66,73,1
0.0006292347894835606,0.0007838161710122442,0.07723908407710965,0.10979575054621173,22,30,66,75,1
0.0006203438159373715,0.0006474765355170626,0.08197656811931259,0.09322504742262303,30,32,61,71,1
0.0006214006171773054,0.0006853621088990274,0.08438436642948433,0.09832901824320611,30,30,67,65,1
0.0005456671761350305,0.0006626008883442904,0.08047850931273612,0.09642376127998215,34,28,68,62,1
0.0005525933627399194,0.0006532892661996004,0.08402557178511982,0.09175814603114647,28,22,68,65,1
0.0004995494202336674,0.000663562533493766,0.07622367795016956,0.09504775094791287,32,28,70,69,1
0.0005287123254389887,0.0006900422512711699,0.07531844232306174,0.08858930344285769,30,28,74,70,1
0.0005028483980776805,0.0008052185169905072,0.07495953396923224,0.10332389823928942,32,24,73,74,1
0.0005205909479324463,0.0007954044182730008,0.07346388808064541,0.09615442935806137,36,26,74,69,1
0.0005742152895549569,0.0008446008830345627,0.07539849701841264,0.10845070563362123,32,26,68,62,1
0.0005702442949314042,0.0007164324553101908,0.08055764826041407,0.09446776567916276,34,24,66,66,1
0.0006009889596858227,0.000637724586631176,0.07635383174099579,0.0869609061352512,30,24,71,67,1
0.0005745605674038439,0.0006381822055000866,0.07296028534673038,0.08948856285058021,26,24,66,69,1
0.0005490931199490913,0.0005428924514051574,0.0745057342175569,0.08040882645508311,24,26,68,75,1
0.00044889350502176086,0.0006172355869463998,0.06216460137761805,0.0866074930220294,28,26,74,77,1
0.0004665866058647183,0.0005780137021326602,0.06580524223382052,0.08561172430462291,28,34,73,74,1
0.0008116373137140578,0.00035817048834529963,0.1502702934434288,0.04956609044454163,36,24,81,82,2
0.0008782714301231925,0.00033604486636514247,0.15092791051831442,0.047747631361641715,30,36,82,82,2
0.000954609737640757,0.00036789209905013873,0.1672751578892272,0.04501055737979226,32,32,85,83,2
0.0009516170590532459,0.0002694490236418816,0.17460773904175572,0.04376068795234839,36,34,77,77,2
0.0009958372311736697,0.000271461725131684,0.17539888399715986,0.042157090418439826,36,30,78,80,2
0.000961798947313652,0.0002459026816773438,0.17201059998647808,0.04014175558843709,40,32,78,75,2
0.0010169287902170017,0.0002300822265744968,0.17082894579916869,0.040470627032170824,38,38,78,84,2
0.001030119155096682,0.0002458681686476085,0.16593913067533958,0.041499236496793566,40,36,76,84,2
0.0009162350503636059,0.00024273161554618685,0.15071479207641453,0.04044325373034071,40,36,85,86,2
0.0008430073528391229,0.0002534232117779565,0.11729477568557413,0.03622554554617345,30,34,80,77,2
0.0005355849105067978,0.0002179061914050335,0.0732468343018761,0.028310765406500085,22,24,86,76,2
0.0003065147563929926,0.00020589299625644992,0.034674679034865784,0.022003771814621608,14,18,78,68,2
4.696819801395927e-05,0.00014584520480992054,0.005387294992649421,0.01564130113595482,30,16,85,73,2
5.993341398043581e-05,0.00016202560367174486,0.007662870593353714,0.016837943252569675,26,16,71,69,2
0.00011961003309818197,0.00020445985223598677,0.013499526509789072,0.019707558890906748,14,14,72,69,2
0.00032963744653184896,0.00019202117034279416,0.04253644115632888,0.021708016499987586,20,18,69,78,2
0.0004909453003712346,0.0002563222592895441,0.06685604782929652,0.028351408028380314,22,20,72,79,2
0.0008484356255539714,0.0003084730563130631,0.11723051570046789,0.04171990879904512,28,30,70,79,2
0.0011210423796822026,0.0003524981382629717,0.1694956547076515,0.04878613400520755,34,30,73,77,2
0.0012599036411335594,0.00036323912511218505,0.19615738120031256,0.05547773451751543,38,30,76,77,2
0.0015002714065889058,0.0004493568376228302,0.2560249489038634,0.06184536938558017,38,28,77,74,2
0.0016037594046782624,0.0004520314003733959,0.28302525470820566,0.062029224728258336,42,22,77,74,2
0.0015806690684476838,0.00046975566420093907,0.2818841671600983,0.07027960931137747,44,28,76,79,2
0.001697079185283704,0.00047182776090807724,0.2673396061489262,0.06851093032954547,42,32,70,80,2
0.0014914395539894346,0.00032861941361778585,0.22276197249782953,0.059702950202985716,34,36,77,85,2
0.001296104396198713,0.00032539708670536544,0.19460868972177836,0.056704301500174484,30,36,84,86,2
0.0011215124388423785,0.0002660985599640109,0.17947455039781207,0.04882186040873903,34,44,83,85,2
0.0011971603328460136,0.00024754475138780667,0.19301420784639295,0.04791131845949002,36,44,82,86,2
0.0013078408278170666,0.00025948014539902407,0.20073446265431516,0.05091539989615731,32,48,80,91,2
0.0012058155494091235,0.00023148377831604946,0.18990503929707125,0.04870278753966516,42,50,85,96,2
0.0011984004112138432,0.00022043466855865785,0.18923965061330592,0.04650111331869517,38,46,82,92,2
0.001116329175841845,0.00020910819917480418,0.18848753387125783,0.043641254567229365,36,50,78,97,2
0.00106815395865516,0.0002028915553805291,0.17946192880416215,0.04143216090398026,38,48,79,94,2
0.001093243291018486,0.000200612869547556,0.1770925714777532,0.037257658185628734,34,42,79,90,2
0.0010450005860081755,0.00019699295978533823,0.1711885931656985,0.03480243251524113,40,38,76,86,2
0.0009354385400847029,0.00019577064248717688,0.16332749364116772,0.033527630724873865,50,38,79,86,2
0.0008610449675931339,0.00017227622968552802,0.15666552327239736,0.02999746681008656,48,34,79,91,2
0.0008701626950885153,0.00017122899569125443,0.14881858296361059,0.02963041832666566,44,34,77,89,2
0.0007945709385173114,0.00017001777617585062,0.14289818197489718,0.030258701709971626,42,40,79,88,2
0.0007405521926936265,0.00016054103131933292,0.13559365181926317,0.027812629684082015,40,38,80,84,2
0.0007347621668528292,0.00016366997407520883,0.12825583987089842,0.029187159795219048,38,40,83,78,2
0.0007335703247588101,0.00015182368620397747,0.12946508153226463,0.028618207179470424,42,44,83,80,2
0.0007342702619903488,0.00014466343609952044,0.12436290457140041,0.02725969890543495,40,44,84,84,2
0.0007707288398662735,0.00016528451614548564,0.12076775301627386,0.028465901123990386,30,44,84,90,2
0.0007972448833827124,0.0001450942538815211,0.12685505204686967,0.02805166285268923,38,40,83,91,2
0.0007881835116121387,0.0001565308309665911,0.12807710336777126,0.029821373366665044,34,32,82,89,2
0.0007627583823161469,0.00017744939157189152,0.12986266677671485,0.03078838965380667,32,38,82,83,2
0.0007205505458231731,0.00019757734699564776,0.12333083888292741,0.03291153053352736,24,38,82,81,2
0.0006836761942042831,0.00019268401813565112,0.11353156987589393,0.03324026042113177,34,40,85,83,2
0.00023133441378442548,0.002038341620580708,0.026342024598099197,0.29597796622107103,22,36,65,74,3
0.00021348100816613792,0.001781110758488904,0.02650893319427873,0.27957170769363543,22,40,68,72,3
0.00023515193118025618,0.0017359046150465887,0.02568612698712909,0.2982316283165573,18,34,65,66,3
0.00024973621311540837,0.001747123726251448,0.02595257887198611,0.2829378428803835,16,28,69,73,3
0.00030279531437176,0.0017611806565511695,0.03199181001377587,0.293623278759307,20,34,66,77,3
0.0003421232868762926,0.001806737724978119,0.032062962165875064,0.26429136652641894,20,28,67,76,3
0.00033246505793852827,0.0018938462867196814,0.03706928970760529,0.29335872996465095,22,30,66,77,3
0.0003631518117352783,0.002150747151499341,0.03983075722084541,0.3021466676301918,24,32,61,66,3
0.00033883862143685147,0.002147389172307898,0.03638550084182381,0.30466116812605726,22,28,66,70,3
0.00033789938731457956,0.006212319989453905,0.033328101120372176,0.4653044985108431,16,8,71,64,3
0.00026368617645443403,0.005924948630367458,0.025890211218926026,0.41704271823567063,14,8,77,63,3
0.00021773335454811142,0.006051081080692836,0.022321082771656658,0.3971269633444841,22,10,74,63,3
0.00013929576005943626,0.0014435211694457087,0.01732252593603151,0.1867902548912184,32,26,67,62,3
0.00015714575123047526,0.0015039739765187374,0.020091830231211513,0.20832146284908598,32,30,71,65,3
0.00020333428727618483,0.0014164429667100702,0.024062376633049384,0.204246866407973,28,38,70,63,3
0.00023804199802558438,0.0017832562637015185,0.028963042247177984,0.24264664811703068,28,30,71,70,3
0.0002646622948261689,0.0016947824176613768,0.03245183631122063,0.259532441257843,24,26,69,76,3
0.00030344938917303013,0.0018410534349410426,0.036870285846107805,0.29085260554161557,22,30,69,78,3
0.0003406732283554627,0.0019859884600360346,0.03709044784146641,0.29924386301685724,20,30,63,72,3
0.0003360151760199937,0.0019273667626318683,0.035840299062172946,0.299318788729673,18,32,64,73,3
0.0003076678346534153,0.0017260862179625219,0.03524190679518546,0.2651022481076612,20,32,68,73,3
0.00030114365009759856,0.0014410591981729886,0.033266065320581836,0.2310218246085654,26,32,65,73,3
0.00028334779153196745,0.0015754385393783224,0.03291534685100333,0.21322791729333576,24,24,69,69,3
0.0002600499945170893,0.001556875281496075,0.03179618675389346,0.22522471572368816,26,34,67,69,3
0.0002968456575306905,0.0018450650819405155,0.03282887555583939,0.2617914693985749,24,30,63,69,3
0.0002978336664713749,0.001855656559140619,0.032919319428087145,0.2559624816798993,24,28,65,76,3
0.00035927285973889574,0.001930413185757676,0.0370961421972052,0.2565710804907626,16,22,63,77,3
0.00025252325440651516,0.0013285113586832798,0.034053933105672,0.2081511478225828,32,36,70,86,3
0.0002438174588067873,0.001112657222061652,0.03439188554449816,0.19649532306564685,30,40,71,91,3
0.00026864542021969197,0.001212440960516628,0.033709027775188374,0.20700596323412682,28,38,73,86,3
0.00027195080058954585,0.0014471710676954592,0.0361726569112657,0.23538370043432874,28,38,71,77,3
0.00030495854222128803,0.0015777101984848394,0.03846570958743901,0.2483964749756337,26,36,70,79,3
0.000288319372452162,0.0017349314156584273,0.03648808367263335,0.2619704705681092,22,30,70,72,3
0.00032693102480979173,0.00194288925708197,0.04054071487177027,0.29532428693912627,24,26,69,69,3
0.0003070825784341365,0.0018454803437212867,0.03508274192555656,0.2837495842680769,22,26,68,69,3
0.00027565293135610203,0.0017808097093510444,0.03204467469919085,0.2912734294355305,26,38,69,71,3
0.00031541952270782396,0.0018935594581097701,0.03388610033544563,0.2841670535441227,24,34,67,66,3
0.0002687845014545748,0.0015760295900205847,0.030183003700350212,0.24281664184535523,28,38,71,73,3
0.00030290981210169966,0.0016703319720470572,0.034662010763730475,0.24914304222852493,28,30,71,76,3
0.0003160607119991236,0.001677743712385609,0.0354166032594884,0.24563288441965794,28,28,69,78,3
0.0003363749861881509,0.0016483672879549216,0.03636247463128372,0.2565204769983135,26,30,67,76,3
0.0003192288187645885,0.0017494813359295693,0.03660737981996851,0.265150374237533,24,28,60,74,3
0.0003212668039249277,0.0016645302142633354,0.035438466839404666,0.2580425302981643,24,26,62,75,3
0.0002888482474525892,0.0016038948511387016,0.03345919427538916,0.24764132233778482,24,22,60,76,3
0.00025439185074510595,0.0015133216181649248,0.03142544862654816,0.23868869213098537,26,34,60,76,3
0.00026114061479107654,0.0016495729405741968,0.03026377391757628,0.2463060181260502,22,30,63,74,3
0.0002511857775633527,0.0014506186625018248,0.027346207641264223,0.22391044753684441,26,30,69,72,3
0.0002517549368554194,0.0013870510289417342,0.02787983474445781,0.20790872255230106,32,32,74,74,3
0.00022747600370029555,0.001444191360377731,0.025499368534696497,0.2143908494603284,30,36,74,72,3
2.148124021884199e-05,3.986980364711734e-05,0.003121369943608392,0.005706892364127769,40,24,92,81,4
3.115752665344569e-05,6.242572689838488e-05,0.003995304862087943,0.00745757220070834,20,18,77,73,4
2.8736073810633147e-05,7.386383446545651e-05,0.004307915723057042,0.009153131412775486,24,16,80,73,4
4.374354580666043e-05,0.00012850799808914132,0.0051690837735438,0.013067207891794493,22,18,83,69,4
6.111967513271226e-05,0.00018131421229410433,0.006522537182736857,0.018333596098561708,22,22,68,61,4
5.9732640748613506e-05,0.00022430388339980938,0.00722803273156883,0.02026351369546172,24,20,71,65,4
7.284929271817219e-05,0.0002556865900865348,0.008869251712661307,0.02278570474205275,26,20,71,64,4
7.365124216033671e-05,0.000310041378092091,0.00954792342680181,0.0263903324007687,26,16,76,60,4
8.577814785972756e-05,0.0002580766878712985,0.01007788985182678,0.022689513752111933,26,10,73,54,4
8.428177894050884e-05,0.0002376220734586072,0.010138159074118743,0.02183912539733954,24,12,72,55,4
6.592919182214883e-05,0.00016348849207295662,0.008302382105380158,0.0175890136198227,24,16,81,62,4
5.762599015602137e-05,8.01136749352391e-05,0.006793050845193559,0.00966029132126767,16,24,82,76,4
4.083609860739995e-05,6.040788990372193e-05,0.005444976252013502,0.007421034677973166,20,18,80,84,4
3.0512959974992316e-05,4.9646060043042355e-05,0.004411247156761292,0.005386787110716719,36,18,78,84,4
3.132462880546329e-05,5.3042425410457266e-05,0.004106348955597464,0.006057132171936625,30,16,71,79,4
2.9393435240976318e-05,7.220137249499346e-05,0.004066266245366425,0.007151187117982981,32,12,85,79,4
2.5757536198801693e-05,8.859222498372017e-05,0.0038207725755720462,0.008446809499433766,22,22,89,78,4
2.1170900141091773e-05,6.795907538252369e-05,0.0035109395852927676,0.006795128301866479,36,14,95,76,4
0.00013383028460151218,0.0001088260969339467,0.00959320354474241,0.00937017692314158,6,16,74,74,4
0.00018576927180225748,0.0041662400897705554,0.012380281228645897,0.24008656525957559,8,4,65,57,4
0.0001993006780514049,0.004438089822736713,0.014185468934228939,0.25369424959350884,12,4,63,61,4
0.0001043762079891351,0.004448649541627833,0.009707884373005717,0.2520595487956115,14,4,69,60,4
0.00011264345497163037,0.004220247680145781,0.011041461708807786,0.2514577570528771,15,3,76,52,4
6.238655093973431e-05,0.0003445129770257159,0.00810478307932527,0.047701359846833505,22,16,76,66,4
5.120848169793187e-05,0.0003320480943678753,0.007228847515714426,0.044685648443539054,27,20,83,62,4
5.115374180155404e-05,0.0003452260710629227,0.006914800592492754,0.05001359704473792,24,24,80,58,4
4.150317613188755e-05,0.0003587976454992834,0.006334524758403384,0.04935825396207181,26,18,82,53,4
3.929044984812822e-05,0.00031195537176249675,0.006120540868736265,0.045423239172982764,26,18,88,63,4
4.416753294517152e-05,0.00030857118528002163,0.005710088891693795,0.04269316628578496,18,18,91,69,4
4.6539858668651606e-05,0.0002535956361715669,0.006068184028722711,0.03924290665199529,22,20,95,67,4
3.8204074462535126e-05,0.00020827476571253536,0.004988271924690311,0.03024045537794901,22,24,101,67,4
4.0260573264319984e-05,0.00025987695053088217,0.005498689979487114,0.03576006019711068,24,26,93,64,4
3.296652348560887e-05,0.00026571261591430776,0.005449998815049007,0.03618043486296551,26,24,93,63,4
3.421958300088566e-05,0.0003489133838553589,0.005734836767036715,0.04124004250969843,26,26,94,67,4
3.739014313333279e-05,0.0003906732489107589,0.005925043295209259,0.04240282817987116,30,20,92,68,4
3.7882029482334686e-05,0.00034899350215694084,0.005707324030606188,0.04131378007886637,32,26,91,74,4
3.9308156418395174e-05,0.0003353263996533614,0.0054443207112742946,0.038386125784076075,40,24,88,72,4
3.917983996882368e-05,0.0002574067629219232,0.005085923405568892,0.034301641555508564,28,24,85,69,4
4.1116965054614344e-05,0.0002659179922770024,0.004969544534696241,0.03343674079729555,24,26,89,67,4
4.0917333856082775e-05,0.000232663507816054,0.004818292175177811,0.028334264797888115,24,20,96,73,4
3.5843082237608734e-05,0.00023071153808278678,0.005051429322184722,0.027776381796070428,30,22,97,62,4
3.443539641530716e-05,0.0002112538457823052,0.0047647249263238585,0.02543121535873338,28,26,94,68,4
3.494522182727282e-05,0.00020475926245641616,0.004863931091092345,0.02623404628505673,26,20,92,68,4
3.502986472397009e-05,0.00022091627375853367,0.004840450256893052,0.029823126158753856,22,24,93,67,4
3.506095135878756e-05,0.0002414632143798004,0.0046800634692843604,0.03196844649634296,24,22,91,70,4
3.603861980592519e-05,0.00021438049319768854,0.0047143105848114165,0.03232965982937917,20,24,91,80,4
4.456498699096226e-05,0.00029783837777396237,0.005517204042548832,0.03985065887248049,16,14,81,60,4
4.2214979234462336e-05,0.00029248885912642797,0.005201633098509101,0.039462561180831954,24,18,74,67,4
3.913261667767399e-05,0.00032021826069972276,0.00521608897381374,0.03838694652470893,22,20,79,63,4
0.0004994089496743783,0.0014961224709014878,0.05647703315672626,0.15993546043044354,34,8,71,58,0
0.00047757136950690255,0.001390641518133087,0.060408229652579574,0.16889917038807598,16,8,70,62,0
0.0004100525514216447,0.0012334445180636098,0.0607623725586334,0.15780242378237117,22,16,72,66,0
0.0004045526403352049,0.0011987700949724575,0.06235565602080813,0.14874671462676473,14,18,76,63,0
0.0004426464846411262,0.001239250425029834,0.06707840801930763,0.15034976555288776,16,20,77,56,0
0.0003853007493094723,0.0011848335622281258,0.059065586709675585,0.14714141370506012,22,24,78,57,0
0.0003981103159082721,0.0011521712105117975,0.057842457694955864,0.14342619200218945,24,20,76,57,0
0.00038052596476363513,0.0011672172701639005,0.055706241068877636,0.14564361311455226,20,20,79,63,0
0.0004388490381692015,0.0011299250172894706,0.05673031877789079,0.14288382446406866,22,24,77,69,0
0.0004178305830882905,0.001075299206792041,0.05663901160690367,0.1338346646922122,26,22,76,74,0
0.0004613848637409657,0.0012247379944592054,0.055716393469205754,0.13977133611346218,28,22,70,74,0
0.0004874595129204088,0.0011880425593615378,0.0574447972739125,0.13650565977583992,26,24,67,72,0
0.00044458425368507304,0.0013076046361182572,0.05195166075780682,0.1395996283650428,18,28,68,65,0
0.0004669046134377132,0.0012140098064866317,0.052641583888731906,0.13611785980210617,22,28,62,60,0
0.00044817301339688636,0.001075198508787583,0.051177004726435237,0.13148726097947014,24,24,63,70,0
0.00042735054603787454,0.0010583908478412325,0.04559926679110182,0.13019885000904668,32,22,69,69,0
0.0004548732629251366,0.00089617251369059,0.048699693004492894,0.11311485931405724,30,20,72,67,0
0.0004585419204289267,0.0009338653545129208,0.047864682659059625,0.12185454551625671,32,20,81,65,0
0.0004471284349890335,0.00103137057558358,0.04904334190416543,0.11676608393078844,30,18,79,64,0
0.000396881889811007,0.001028526949242494,0.049163152439568564,0.12252867233497057,36,16,77,61,0
0.0003931280420661842,0.0011061430500033023,0.04835528611603217,0.12879540666807954,30,18,73,62,0
0.0003758222634557311,0.0009944950010537278,0.0495446105984675,0.1174882520401613,28,16,70,60,0
0.0003453339970277815,0.0009353217023786077,0.04359023284310549,0.11956126486531365,28,16,72,67,0
0.0003665014926345031,0.0009117792876800612,0.049197526777464626,0.11263069724876086,26,20,68,64,0
0.0008385576550997048,0.0008652901342532361,0.09541748256355775,0.12420898874995781,16,20,62,69,1
0.0010180744031085937,0.0008929669528949034,0.1137370371340496,0.1333282540807639,8,26,61,76,1
0.0009858027691801053,0.0009680053675385893,0.11044095500683312,0.14583702195392972,16,22,59,70,1
0.0010279930168872904,0.0011253185519205955,0.11410078968191764,0.1560747178472721,16,24,59,63,1
0.0010559751621235006,0.0010058777801631041,0.12310355967794442,0.14078581058145406,28,22,62,62,1
0.0008058358953509471,0.0009409187263367393,0.09942356649086394,0.12404684996258274,28,20,66,64,1
0.0007688518150578348,0.0008133733982023134,0.09912205264926435,0.10435522737071029,22,22,65,70,1
0.0008086108620784184,0.0006842391341561042,0.1095380827146962,0.08295588747721648,22,20,70,82,1
0.0007057273799220485,0.0007368320445160849,0.09868859072290448,0.10093214665426573,26,24,68,82,1
0.0008110059426322366,0.0007164279936109066,0.11140129790902271,0.10067710272755209,32,20,66,78,1
0.0007858486019311271,0.0008728692932896428,0.10370155547851517,0.11776009836466936,32,26,62,76,1
0.0007728480877811272,0.0008132734819875296,0.09424331826623072,0.12183681406404256,28,26,64,66,1
0.0007568449338653318,0.0008470300965274696,0.09595188516037302,0.12291248990917314,28,26,63,73,1
0.0008723303293536335,0.0009131777940123477,0.10669706976795881,0.13264812334577744,24,20,67,65,1
0.000817299015791258,0.0008492110062074432,0.10943278173163933,0.11862929524553723,28,30,68,70,1
0.0008405976431690254,0.0008942556461079102,0.11141659619461362,0.12015899934281908,30,30,67,69,1
0.0008892233598494805,0.0008115218030360537,0.12089581968586463,0.10814340161726438,20,30,67,72,1
0.0007793548438600695,0.000915230107028792,0.09494533863165473,0.11197579411318792,22,24,66,65,1
0.0007239781163154186,0.0008574190515276286,0.09570608645658246,0.10037077479129572,26,24,67,66,1
0.000618248850502794,0.000980915845851893,0.08348329268502512,0.10635463236361112,24,20,67,71,1
0.0005737824755178473,0.0009310233824166906,0.07618109041472987,0.1011817103444379,26,22,64,65,1
0.0005949266688498621,0.0007978077198561376,0.07759496985206682,0.09358841627386007,30,26,56,72,1
0.0006686191642253415,0.0008916059927232368,0.08079976880876145,0.10747506600105786,34,26,59,57,1
0.000734796891240672,0.0006936085435042221,0.08973664259908729,0.08905983610857593,34,28,61,61,1
0.0011718449248043338,0.0002830409823698904,0.18777493060071196,0.04313651965631366,28,22,71,80,2
0.001262603368727928,0.0003039206538362711,0.19669620649750116,0.04395088621440454,12,20,69,79,2
0.0012114991216071694,0.00027836268250184653,0.194584844693137,0.043476933787148,16,28,69,84,2
0.0011922805688117585,0.0002656862668067425,0.1993041589492638,0.047902682188217124,14,18,79,79,2
0.0011462809156706473,0.0003126254543961997,0.19905976079233673,0.05184059455952968,12,12,85,76,2
0.001015802138698306,0.00043056118953721306,0.18552315205055642,0.059414518537818345,20,18,85,70,2
0.0008941601541688607,0.0005093225968863202,0.17241987342537415,0.06411080779889763,18,20,85,62,2
0.0009708416449221126,0.0005583806066735737,0.1759325621953256,0.06371112274577903,16,20,79,62,2
0.0009200439204447003,0.0005954619900288467,0.16299788375013788,0.062305428261655964,20,24,71,64,2
0.00099731819210345,0.0004975360694052374,0.17120566364082015,0.05593778987320612,26,22,73,66,2
0.0009778171247599257,0.0004578933337204604,0.17250803629450093,0.05449031414349828,32,22,77,72,2
0.000970232661842785,0.0004496113221564516,0.1814095215636964,0.05438362755604643,36,22,80,72,2
0.0009659499055596856,0.00036269695348435785,0.17881277570508608,0.05401133611503045,28,26,84,76,2
0.0011718061174595482,0.0003528083427966762,0.18992213108361738,0.055127746455497215,38,36,88,80,2
0.0011944640191096658,0.000323135030630824,0.1952880250479981,0.057126052041503575,26,42,89,85,2
0.001188847639063445,0.0002992571002308051,0.1840639307245587,0.05500477874228262,28,40,88,83,2
0.001180325028081742,0.00031975799724998295,0.1899233189555829,0.05302126324903513,24,42,86,85,2
0.0010401576499241628,0.0003863665361165535,0.1725113496870006,0.05360723490619806,28,42,84,87,2
0.0010103889396993358,0.00039020783122672065,0.1714146372422083,0.04982244523117183,32,38,78,82,2
0.0009938466591330683,0.00040006079376445845,0.1699017308824606,0.05180476962611507,34,34,77,84,2
0.000988887601932211,0.0003712357901740703,0.16922606182926647,0.05160496550055611,30,42,77,81,2
0.0009131230163598159,0.0003358416563251251,0.17487957249342462,0.04756940597905928,32,38,76,78,2
0.0008835031478330134,0.00034445379237839943,0.1656688638396374,0.04973873095316369,30,44,78,78,2
0.0008880742374494357,0.0003638992392774362,0.15373892940941536,0.04959227925788095,38,40,78,74,2
0.00033160677508228044,0.0022375338955006136,0.03527681251473766,0.3125784891588991,18,20,68,73,3
0.0002826536331506752,0.002200787095276834,0.03581057041756776,0.34254330839484937,18,26,73,72,3
0.00030335370914574134,0.002180902806235202,0.034555250275997575,0.33946742383765344,20,22,73,75,3
0.0003392423080094975,0.0024741257077600734,0.03719558498897553,0.35476602766910065,24,24,64,71,3
0.0004466914014470912,0.0026588533901147388,0.039808122011342345,0.39246819458701493,22,20,64,71,3
0.0004688123576352952,0.002589153155919586,0.04171706880057079,0.37411297301738344,26,20,60,70,3
0.00045817014156563306,0.0025410481129252453,0.04252212694928295,0.37444766142817365,28,34,56,78,3
0.0004359104273369329,0.0021757875045566883,0.0423375388855766,0.33978026103717984,26,38,60,82,3
0.0003955006386967354,0.001980260894202056,0.03852168626042815,0.30729114389488066,26,38,73,80,3
0.0004140476628772919,0.0022371313645453673,0.03953001872952853,0.34940728701526796,30,40,71,76,3
0.0004476207715261335,0.0020562537349178337,0.04089739233937882,0.3329323387083344,32,42,62,79,3
0.0003913357572260376,0.002270065415774635,0.038290294180925194,0.37588255721221575,26,38,61,71,3
0.0003857478462333231,0.0022957186325851435,0.04115529726282912,0.3727591031851269,30,40,58,66,3
0.000330492189844682,0.0020282207178068134,0.03770651863266766,0.32463556531588555,28,32,58,71,3
0.00028619032085637155,0.0021577855885589097,0.03629004610503951,0.3443632287868237,22,30,68,68,3
0.00027841477373116556,0.0020021769830934617,0.03597832679896846,0.30883442517116316,22,26,69,70,3
0.00025262233511408284,0.0019612043765285083,0.03238195827395318,0.3039140608178081,20,28,69,70,3
0.0002650490393096597,0.0019514386233030019,0.03410305097061555,0.30575366997516873,20,34,67,73,3
0.0002842122391850914,0.001788024370548159,0.03239447145933942,0.2924458959561691,26,36,65,81,3
0.0003328880982308,0.001907174725555773,0.03403740801775189,0.28090040891157886,24,34,62,77,3
0.0002973633589240873,0.00186549908402582,0.03252229429169462,0.2758316627269249,32,36,67,81,3
0.0003099801978698214,0.001974932413006698,0.03051639331953155,0.301225223229361,28,42,66,77,3
0.00026892614305124593,0.0019989696086214204,0.03063210289513495,0.281146463606743,34,34,66,72,3
0.0002525044702384237,0.0020994856761055148,0.0280701010952932,0.2926494227304191,32,30,70,73,3
2.328250853608395e-05,8.917446058727307e-05,0.0031459292863505795,0.011804012763885572,12,16,93,67,4
2.309704153991092e-05,9.787164548638923e-05,0.0030194525124395293,0.011712596011088542,8,14,95,67,4
2.1474777905315926e-05,0.00010916003338107954,0.0030111094175520976,0.011855656559495829,12,18,101,74,4
1.9784791287929673e-05,0.0001484271716285371,0.0028641293480576664,0.013779086196356392,10,14,97,65,4
2.0120226923468898e-05,0.00013554252336710196,0.002821582435579155,0.012853865775189956,24,12,100,55,4
1.861950706986072e-05,0.00014677480637129202,0.003022759647218909,0.014593343556310374,28,16,103,62,4
1.9704546159147306e-05,0.0001276480294158075,0.0028027711186551785,0.011528661339988939,30,12,95,74,4
2.6109518153403424e-05,6.507163360915836e-05,0.0030912528969404217,0.007665239479713727,24,18,88,87,4
2.9278787891515854e-05,8.14068445026536e-05,0.003156951272651165,0.009196549015971717,32,20,85,76,4
2.6259833408025866e-05,9.966326143561412e-05,0.003022725633722188,0.01227070843861069,30,20,81,74,4
0.00023686216180925424,0.0003891815298231662,0.0141609835846926,0.03020089402287373,36,20,74,54,4
0.0002660106333546787,0.0005707001036955853,0.01591750763579255,0.04142740097584632,30,20,61,52,4
0.00043646825120409005,0.0006119746528729671,0.024908947692009964,0.04332487740700015,30,18,82,50,4
0.00043660948610672477,0.0006319078748718713,0.024473839162978347,0.041762125063640035,40,16,75,47,4
0.00023882702612737814,0.00037014989400562914,0.014312891599039501,0.027495882343040862,36,16,76,52,4
3.4054441074774574e-05,0.00019154408090872664,0.003960030193200838,0.015338337085236629,46,14,69,57,4
3.3573594946767875e-05,0.00021408078832469666,0.004015936625881634,0.015290377446440637,36,12,73,56,4
3.248304604819755e-05,0.00012059527333895745,0.003767405914437009,0.01111367055083222,40,12,79,67,4
3.430514738460418e-05,0.00010336924413940524,0.00372540018454168,0.008505830029615262,36,14,90,70,4
3.1495070467113e-05,8.221754988878319e-05,0.0033843619874674136,0.007697906512764238,34,12,97,69,4
3.0312006425431375e-05,5.281565937972866e-05,0.0033332697965627552,0.006109044122286167,30,16,105,71,4
2.9130875890823345e-05,4.389424822943017e-05,0.0032331164821043715,0.006015569786380981,28,18,103,71,4
2.3172874896179905e-05,4.1383102392220435e-05,0.002913241670714327,0.005945762841274202,32,20,103,72,4
2.2138294008761978e-05,3.83920126345447e-05,0.0031586077123366522,0.0056126075690855854,30,14,100,78,4
