f1ch1,f1ch2,f2ch1,f2ch2,f3ch1,f3ch2,f4ch1,f4ch2,Category
7.184350716309193e-05,0.00010339399882045827,0.006920932674021077,0.012156722850554252,22,18,75,76,0
0.00012782757084882717,0.00020141342315975675,0.016136038081404753,0.023977044695970073,20,22,68,62,0
0.00018694901450470796,0.00030206430244868936,0.025878338142700824,0.038294586429480235,24,24,79,66,0
0.00030306446292364606,0.0004090964076475644,0.045084935067597025,0.056923208338286166,22,32,70,68,0
0.0004253986075305843,0.0005397590009766777,0.059802684188666334,0.07411469064838642,24,32,70,67,0
0.00045572207160284766,0.0005597337347535327,0.06877808711654289,0.08030168727427962,28,28,73,68,0
0.0004904903678294487,0.0006012892438859404,0.07278364796573977,0.08498132069803147,36,32,78,73,0
0.0004206767161379927,0.0006265338317398903,0.06552071649945894,0.0880232883302055,36,26,83,70,0
0.0003734112585893953,0.0006409871219160549,0.0672088637452932,0.09163317654263216,42,26,91,78,0
0.00034834350977372023,0.0006220198368901434,0.05949040304309039,0.09212621011187672,46,34,91,79,0
0.00032479578246517594,0.0006157339376100713,0.06002673958045531,0.08813196024277248,44,32,88,82,0
0.0003974798668003459,0.000636063853915857,0.06563117425666391,0.0920350676882598,36,26,84,73,0
0.00034740025940874767,0.0006443574656625465,0.05969356267670455,0.08964774435494531,40,24,74,70,0
0.0003817992470689829,0.0008200049426057739,0.06510577544517451,0.10588768545732043,34,24,71,68,0
0.00038335326915463756,0.0008251620250984761,0.0643398349418047,0.11481017832693777,36,30,71,59,0
0.00040422856499918,0.0008027550683520337,0.06193054625361376,0.10730828117802482,30,32,75,66,0
0.00035050491530454225,0.0007909890985751776,0.06063350596960332,0.11208362747950944,38,36,80,65,0
0.00034147927317739265,0.0007084109294596295,0.06287224469955717,0.10165127945400351,36,40,82,75,0
0.0003102204201944023,0.0006956166065385337,0.05720475772112148,0.10032697952501825,32,42,82,74,0
0.0002928199947352853,0.0008043669381090442,0.04948495598018694,0.11054255842717312,28,30,86,70,0
0.00025870508920734217,0.0007757800860329776,0.04535637344735796,0.10900987891707348,26,28,85,71,0
0.00021009487545152656,0.0008874679341378132,0.03547853297655861,0.11379683497745827,26,26,81,65,0
0.0002507139667382173,0.0010529669228209863,0.04017795246419589,0.13030476436276955,32,28,82,60,0
0.0002467873645101559,0.0009430601490864071,0.043563703609105636,0.12305280650024641,32,28,79,58,0
0.00027815302639335083,0.0009525856743095814,0.04730579519029589,0.12648487477186054,34,32,79,62,0
0.00030845337393137196,0.0008672461985087968,0.056004396098704765,0.11913051374178799,34,30,82,65,0
0.00030547544014431703,0.0007559526212387823,0.051664314825716366,0.09716482831584897,38,30,85,68,0
0.00035838474762383817,0.0006656186212794273,0.059215404339584325,0.09644833837362202,34,34,82,66,0
0.00036097106116725314,0.0006077250121275388,0.05522560343534626,0.08478846009454089,34,36,79,65,0
0.00036467020518593345,0.0006008354466054268,0.05014884076245498,0.08109521814056346,30,32,80,66,0
0.0003306693217287837,0.0005472996958724407,0.048537501069981524,0.07920595846250558,30,38,80,68,0
0.00033006615188175826,0.0005786844134171292,0.04477218935983422,0.07972670735545954,24,38,78,72,0
0.000317092996355174,0.0006328832285926635,0.049968210840880906,0.0843573930169919,28,28,76,68,0
0.00035192264607093954,0.0006782852419464085,0.056139632400285897,0.09002799234876985,30,32,71,70,0
0.00036790116431863906,0.000665985915444831,0.055104272627231964,0.08929659529309333,32,28,67,70,0
0.00034352497990496544,0.0007279822144577533,0.05221793917398527,0.08860994079478222,30,24,68,66,0
0.0003338461778648369,0.0006146516655705384,0.050935293985370556,0.08540503792488367,30,24,69,67,0
0.00027942112050176565,0.0006431188922476254,0.0484267115084407,0.08773796005069417,30,26,78,66,0
0.00027946269907917174,0.000639512826946425,0.04918618089949399,0.0870184499018154,28,26,81,67,0
0.0004240012572818729,0.0007724332496951848,0.0562239677983288,0.09252006641008031,28,32,75,70,0
0.0005344973480658978,0.0008594618416168197,0.06447446291759616,0.09681632643831978,26,24,71,66,0
0.0005911842951379281,0.0009383417283533231,0.07074340713058035,0.10503501850365564,28,22,66,70,0
0.00048725862940996297,0.0008832212998900774,0.07127820373080083,0.11434778139709838,30,26,74,62,0
0.0004869453423547958,0.0008524974894121166,0.06985006063007651,0.11782580556390711,36,32,72,65,0
0.00040274568915064083,0.0009052525049932221,0.06053863922018822,0.12602048435139626,30,32,74,65,0
0.00032991328154276814,0.0010035351251844197,0.05764790406905058,0.1334372413123711,36,28,76,63,0
0.0003347305102210465,0.0009240921537061328,0.054193629578572815,0.11952711292683903,30,24,74,73,0
0.0003429762498267518,0.0010441548335970309,0.05885983285500944,0.12947283934673182,30,28,75,62,0
0.0005332115533296917,0.0013022226342663098,0.06627588788924571,0.16879427008655903,22,20,58,56,1
0.0008121762872750824,0.0017006055584084178,0.09274080897669204,0.22089145739172128,30,24,57,61,1
0.0008166043826617035,0.0017896567379647095,0.09726055091157082,0.23270917934661217,30,30,70,58,1
0.0006889949026946784,0.0019742505142461226,0.09021136601938146,0.2561199868597249,30,32,71,61,1
0.0007160021955221036,0.0020301955809645467,0.08684708240969281,0.2638411506343326,22,34,71,64,1
0.0005864844741212748,0.002042588319229345,0.07761361967552974,0.276171938105349,30,28,69,62,1
0.0005861325470701235,0.0020769596534079902,0.08470729194844215,0.28321993327506484,32,26,76,67,1
0.0005497116363822951,0.0020020664954662577,0.07778677083287049,0.29149262611233595,32,24,72,70,1
0.0004512615294818165,0.0018804115849638378,0.06510076054549126,0.28712139514776763,32,24,76,72,1
0.000443786939058788,0.0019224679690852,0.06610600218503533,0.296265717774712,38,26,66,69,1
0.0004237031663299111,0.0020294058343643985,0.06422472386674276,0.30538172639299593,44,26,65,65,1
0.0004592099771481934,0.0016417112077942192,0.0678560392950266,0.2562745651429598,36,32,65,71,1
0.00046113064268093443,0.0018562099346386208,0.06902211117930696,0.27580091494744163,38,24,67,66,1
0.00044191223406613906,0.001617982651707867,0.0681356060082174,0.24699071593020874,36,24,65,71,1
0.0004059458556229248,0.001436983027837217,0.06038937443005374,0.22300910552321518,32,30,69,75,1
0.0003739700636756498,0.0015697203067592338,0.05455221177105165,0.23935513131324543,36,26,75,71,1
0.000376508146789659,0.0015108617668527931,0.05136124189379879,0.20843418403517153,34,34,71,71,1
0.00034385176773318854,0.0016143459230401386,0.04752857950905237,0.2203157814472449,32,26,71,71,1
0.00035882208885018753,0.001537986188462847,0.049352594471066324,0.21694372238422838,38,26,72,72,1
0.0003545120815347515,0.0014047005568869936,0.050792023022536915,0.1985761097191623,28,28,70,73,1
0.00040861278662151764,0.0012640416355007855,0.05393408420158035,0.20016719077145467,26,30,72,73,1
0.00038441501515120954,0.0012781461184334234,0.05731881841920584,0.1974941383709189,36,34,75,73,1
0.00040590445910235364,0.0012749138381859813,0.056565438034084044,0.19405220803806447,28,30,70,73,1
0.00047808253856652943,0.0014463895421399336,0.06445769022760803,0.20530461255770854,34,32,64,66,1
0.0005202930771148019,0.001325070913101233,0.07173163270882264,0.18740858278040531,30,26,57,68,1
0.0005759890129545968,0.00115771558386528,0.07875290716702221,0.1723568563732467,28,34,60,73,1
0.0005712260961726031,0.0011006245963376252,0.07944193258333576,0.16863366579440536,28,34,62,70,1
0.0004966225177291951,0.0011408274974473588,0.07083824897947891,0.1816530497623296,32,38,69,74,1
0.00047715119128292514,0.0012963119892369904,0.06781359786899034,0.20078333168127077,36,30,65,64,1
0.0004656489397509093,0.0014149493594890422,0.06479246049530367,0.21733391723624726,38,34,66,68,1
0.0004841904826430336,0.0015452840707769178,0.06700762147885261,0.2292873510948576,34,34,66,59,1
0.0004948516190022977,0.0013626861060595857,0.06826112730005071,0.21140891474607232,28,34,59,65,1
0.0004786566197120678,0.0013747783901563058,0.06924693776329745,0.223078799111455,30,30,62,65,1
0.0004763562752193804,0.0013882291594582764,0.0706593239188191,0.21133336525570465,34,34,66,59,1
0.00047421602493622026,0.00129784260539047,0.06709561498684627,0.20004400597429609,36,30,62,62,1
0.0005137841059426831,0.0014418813712397433,0.07002462647255266,0.20901514787343403,34,30,70,62,1
0.0005274674248183209,0.0012783885984032452,0.07068775218954573,0.17361106886513436,40,26,69,62,1
0.0005252222985648901,0.0013574382769407291,0.06892155351545931,0.19328871413592755,38,24,66,64,1
0.0005472330660069132,0.0015270690131691047,0.07753287134031918,0.20686144104935544,34,28,65,68,1
0.0012580921022393788,0.0014701032564581795,0.1174409607457293,0.18775266846624616,10,26,64,61,1
0.0012483112526742233,0.0013957483893681116,0.10926726263535903,0.16542664763251858,10,22,59,63,1
0.0012078635163344858,0.0011654140368094785,0.10476447304170952,0.13423121860385825,12,18,56,69,1
0.0006170450961684962,0.0011198653203363072,0.06596863818585691,0.12048266745091898,18,18,56,67,1
0.000422531328893047,0.001157060415226062,0.051870890777867884,0.11595899898539232,18,18,55,63,1
0.00040271510779081116,0.001079262181655136,0.0528887061664012,0.11857472814755676,22,22,58,66,1
0.0003912526246759322,0.0009557795050734278,0.0507810836731706,0.1064816971924402,22,26,58,60,1
0.00032450597257512834,0.0007936446604334671,0.04313827933318176,0.0868481261989361,24,28,63,55,1
0.0002884189322303752,0.0008638302585733916,0.037159809347597036,0.09871900003505409,26,26,81,53,1
0.0013741841896990012,0.0003109802199078092,0.2462720402771846,0.05586302357080602,40,44,80,80,2
0.0012673395543492917,0.0002911626047684225,0.2486352921243275,0.05651705600387447,34,40,84,84,2
0.00123302745388556,0.000271346672152874,0.2378666585415315,0.05036114807401126,36,44,93,86,2
0.001095831306383565,0.0002459942344787228,0.21761454876965639,0.042597777761847776,50,32,96,90,2
0.0010540145983586558,0.00023868071918926217,0.19446952379346083,0.04203507052232266,40,40,97,89,2
0.0010774354792481193,0.00025404487082083627,0.20120664047908624,0.043088966211598995,44,42,96,89,2
0.0011563701053346846,0.00024341156774006437,0.20471640567651073,0.04453783074328899,42,48,95,90,2
0.0010969606211423176,0.000279055229909058,0.2105863708518084,0.05094283700852797,40,52,95,87,2
0.0011409257968186951,0.0002781216921101761,0.22877755813776976,0.05172405297681215,38,50,95,91,2
0.0010840426883072635,0.0002449746897953914,0.2218621081442679,0.04844331639067205,46,46,93,93,2
0.001073711412974729,0.00023672323526736393,0.21858946787892286,0.04688785106360526,44,44,90,93,2
0.001111403474631119,0.0002050586892048518,0.22137067889055878,0.04143922175523206,42,42,94,96,2
0.0012204445678675945,0.00020164674024560428,0.21516539407312632,0.03959556059754514,36,38,83,89,2
0.0011900312051584833,0.0002345074310845173,0.2216086538529267,0.0436033959190972,36,36,82,83,2
0.001146331758392135,0.0002807515610468003,0.21580989913638374,0.048298035946396645,36,36,88,83,2
0.0011213141396433897,0.00028508101869354315,0.2116053974326342,0.04931125259331617,30,34,87,81,2
0.0011534261647191744,0.0002908211218567014,0.2072932499346258,0.050228859596100746,34,34,93,82,2
0.0010300890252739796,0.00026551178681795287,0.21350129946163113,0.047676711630842146,38,38,98,83,2
0.001123387560067266,0.0002335288984245281,0.2130441216282799,0.04593173207790818,42,48,97,90,2
0.0011560640916564815,0.0002475225807316106,0.20823969499876174,0.044695414303653445,38,40,88,88,2
0.001135921639426577,0.00025087409538402224,0.20466567436860345,0.04323434851426989,38,40,83,82,2
0.0011738015955810722,0.00024572211390116923,0.21045841290801104,0.04441292909050559,38,36,84,87,2
0.0011468852752297678,0.0002459873869809211,0.20111350069836417,0.04175215231458972,42,38,84,84,2
0.001083669725151038,0.00026233151021107806,0.2023162472231567,0.04405024965834399,36,36,86,86,2
0.0011403881389829792,0.0002803646711764151,0.2182139869642418,0.04375274764567036,36,26,91,85,2
0.0010624467324286632,0.0002829337092098019,0.19502636273995802,0.04328967110119919,38,32,93,80,2
0.001133479672506122,0.00029178255781152167,0.20804348319517044,0.04654401569524719,36,32,91,82,2
0.0012921944736100715,0.00030810274922464867,0.2287973539596779,0.04548616550791647,44,30,97,85,2
0.0011389905814941823,0.000313790481173749,0.2127753444654902,0.05235213039420752,38,42,91,89,2
0.0012811443629629094,0.0003205408205161476,0.24295646638605065,0.05601411955825313,38,44,91,89,2
0.0013228282237891676,0.00031080035957878024,0.23619861997798694,0.05364041295318375,46,40,87,84,2
0.0011238355759564634,0.0002799816213609146,0.2164376412853845,0.05549236296181789,40,42,87,88,2
0.001109685960366611,0.00025339082886784755,0.21184839979487521,0.048448414710690516,42,36,84,89,2
0.0009581007825968053,0.0002224068445958002,0.19245795899639295,0.04044987871335366,46,36,84,90,2
0.0009170113316768849,0.0002214828414693984,0.1799643345768289,0.03976277754566851,46,42,86,86,2
0.0009752494973018991,0.00020563342568536398,0.17688637386384476,0.03699438937121658,38,40,89,93,2
0.0009985570886165006,0.00018756262602445125,0.1726244463837626,0.03615475259954983,38,46,88,92,2
0.0009728168189694778,0.00017976316286370624,0.17381274097338917,0.03678655597548501,38,48,82,96,2
0.0010399511355287353,0.0001850831427142554,0.17434133194248003,0.034125033880578186,38,44,80,97,2
0.0010973729938330075,0.0020334829680898037,0.14870813188786283,0.1231349098099842,26,4,73,76,2
0.0008597532254363984,0.0020944040807431845,0.10663244670222892,0.11964834302548163,22,4,86,70,2
0.0006306148808221397,0.002037952738086106,0.0613394821795789,0.11165438572768897,12,4,73,56,2
7.296470045441864e-05,6.359347831257879e-05,0.007172755224478753,0.0079048961660675,22,22,73,74,2
0.00010529882061776912,6.14495265921622e-05,0.011889356446975714,0.0073058561073644735,18,16,74,77,2
0.0001974395190317851,7.628442739980304e-05,0.021483609208515747,0.008239658364227687,16,16,71,74,2
0.0002891237019028005,9.106241281556362e-05,0.031446007663261305,0.011006575596434531,22,20,63,77,2
0.0003854744521964534,0.0001801752946664469,0.046982520536205344,0.0169045907244679,20,16,68,74,2
0.0005817216001438364,0.00022485612091251275,0.08222066570363792,0.023657492906256464,28,20,73,81,2
0.00013263609636188749,0.002069340203335668,0.013241886832306515,0.26923215979275616,34,26,80,56,3
0.0001606446111423436,0.00271894671201415,0.016468211670102453,0.3654357829414021,30,34,72,55,3
0.0001655753955142052,0.0031316399315364078,0.017899093887005304,0.4414484085710736,28,32,74,58,3
0.00015607566019755403,0.0030281120101852553,0.017595828069882354,0.44650449325453206,28,24,76,64,3
0.00013787926447548146,0.003153779716716772,0.01770316285032077,0.45520868146352383,32,22,75,71,3
0.00014641291063711474,0.003090430102027857,0.01728866217742977,0.446836839211928,32,18,73,73,3
0.00011977052612654058,0.00245633771549909,0.017602551512418057,0.3887151039824687,42,24,73,74,3
0.00012530190520603407,0.0024126742537010563,0.01984434102327887,0.3885111031000831,40,26,73,74,3
0.00012854044683152863,0.002076047467359888,0.020902763351047602,0.35324314777231336,38,34,76,76,3
0.00012871506262093822,0.0021468323139134994,0.022357157431101934,0.3577027274238124,38,34,84,72,3
0.00014652765272730008,0.002169116881949794,0.022311896250880328,0.3524098574851029,34,28,83,73,3
0.00014719188024966398,0.002194806441294369,0.02359497438475634,0.3521381123283029,32,28,82,72,3
0.0001475178568804087,0.00234235961658032,0.023008903784837786,0.3672131769706314,28,32,85,73,3
0.00016184280935812673,0.0020317447346785023,0.025347104709789278,0.3429827559977077,38,40,78,79,3
0.000160161985358365,0.0022621412441539914,0.025830349177492246,0.3771531621674113,44,38,77,77,3
0.00014962232693461637,0.0022161094864713397,0.025318011108477364,0.3625444984883458,44,40,80,78,3
0.00014482931517747311,0.002293009539978191,0.025567787982379554,0.36417553909221284,38,28,83,78,3
0.00014246057353417728,0.0024886882809070695,0.0240802371271052,0.3887398343995188,34,32,89,76,3
0.00014471808545337228,0.0022912278671650397,0.024741815720676703,0.3925904713110398,42,28,84,73,3
0.00014553461896479406,0.0025294589108431982,0.0235156187408148,0.4080586347243449,36,32,82,70,3
0.00015289009523894667,0.0023902094055838884,0.02432412307851227,0.4093437143868275,36,30,76,70,3
0.00014552191335403617,0.0022960133305957578,0.022381757605736324,0.3760747507290935,34,30,79,70,3
0.0001366970762433276,0.0020855215410236975,0.02123596416792403,0.33971849555909933,36,28,83,74,3
0.00013598627961850846,0.0019130962546053546,0.02095453798226774,0.3373401406472959,40,34,84,75,3
0.0001398401169640011,0.0019424949011220183,0.023986854671352746,0.33711944616832096,43,38,93,77,3
0.00014757323133255716,0.0019203371043617099,0.0248648197580898,0.3533561661499226,40,38,89,77,3
0.000166227680247491,0.0020038616762741795,0.028614286422935526,0.3795282405048718,40,38,84,74,3
0.00016494477543699783,0.00193750651250324,0.02934240028917583,0.35179819891998365,42,36,82,73,3
0.00016235796893226292,0.0018013527794521924,0.027068960234622085,0.3252860160190816,36,32,75,70,3
0.00016969787929155665,0.0017858352988168386,0.02646738294776328,0.3135403020083112,38,36,75,69,3
0.00016239911037909692,0.001613916469001446,0.025354190365896968,0.27630616192167146,40,36,72,69,3
0.00017918904221048278,0.0016769834391533974,0.026785192006892073,0.2778503213543141,42,34,78,69,3
0.00015405594287275055,0.0016591686643526885,0.024653660854554192,0.2663695985182981,36,28,79,65,3
0.0001480318747606043,0.0014694234195053156,0.02405835141105847,0.23996623713447446,34,34,88,73,3
0.0001541970014258811,0.001473120182655843,0.023279909033778714,0.22882896208044085,33,32,88,76,3
0.0001307300051964832,0.0013721483502429166,0.020942935891223414,0.22580308999964055,38,32,90,72,3
0.00013721489683563874,0.0013354884157864594,0.02255184180302524,0.21402545133980222,38,32,89,72,3
0.00014801104197158902,0.0014972663752377277,0.02427964785592564,0.22296931778442677,36,30,83,71,3
0.0001422846534976796,0.001587082354315981,0.024147402624713002,0.24501356632524696,36,30,83,66,3
0.0007941322527730873,0.004776977038399465,0.05289748871596705,0.4113460704967957,4,16,73,64,3
0.0008108114443948266,0.005233026707975401,0.05143772751173145,0.46250264109349,4,18,66,61,3
0.0008008184600693736,0.005226046143571129,0.05223580234569489,0.47415092040285406,4,14,64,62,3
0.0001695913201353115,0.00268088011162109,0.025060936064470154,0.3625487059231597,28,26,84,68,3
0.00014938301122251082,0.002535498108274042,0.024478996929988728,0.35535957535050205,30,32,87,64,3
0.00016316993322611044,0.0023386309651332107,0.027297582813186033,0.3470266104688915,30,34,83,64,3
0.00014495727602798815,0.0020617946062043246,0.026557656125522213,0.31163429056083364,38,28,82,68,3
0.0001433723097146165,0.0019896146079303807,0.026900006883486483,0.29905088283800224,42,26,79,71,3
0.00018136510464664794,0.0019409185448662062,0.0315792363084767,0.3158412652694498,42,26,74,74,3
5.0262342946382454e-05,0.00017525711646169153,0.004857448155888567,0.02028264968764335,36,14,66,72,4
4.823899037976102e-05,0.00016563558448077858,0.0048850958942618615,0.01789684506336829,26,14,70,72,4
4.786423117684642e-05,0.00016178387415918038,0.00497850838184188,0.01651550281246796,30,12,74,74,4
4.837771751587858e-05,0.00015292249840790164,0.004932996288437098,0.014271661294701246,24,21,72,73,4
4.734320757071899e-05,0.00013806910894707087,0.0047121075307089534,0.013370946136576398,28,8,80,81,4
4.770276056228164e-05,0.00013648026242733235,0.004753238874178179,0.014091749801579342,30,12,84,75,4
4.8844943966198e-05,0.0001508767844423767,0.004922006381328651,0.016476360257011102,28,12,82,74,4
4.754604703611738e-05,0.0001234811511070876,0.004994194362631211,0.01476375864398562,28,16,86,74,4
4.53965844591005e-05,0.00019973540485515942,0.005101931299052322,0.02065914939417924,38,18,80,65,4
4.7647108449911066e-05,0.00019730339879325544,0.005133013446958746,0.02043115492998558,38,16,74,68,4
4.731171395723393e-05,0.00020489772165313723,0.004938148271389543,0.021292785808164606,36,16,72,66,4
4.787073268868642e-05,0.0001806567583758615,0.0049500527560034585,0.01943229641393458,34,12,76,71,4
4.627075525992703e-05,0.00011785386027889808,0.004842505780591326,0.014574867232166146,36,22,84,75,4
4.8226390880885434e-05,0.00015313857105465976,0.004956225682217295,0.01688588471395288,38,16,82,70,4
4.784100944512633e-05,0.00013680872821048284,0.005130228959870423,0.015613076712113238,42,16,74,70,4
4.7320510390125096e-05,0.00014742109650260418,0.004869672974931627,0.017231444237092698,36,18,72,73,4
4.579286265159787e-05,0.00016668240597224112,0.004956196314340827,0.018920226575089134,36,22,74,67,4
4.584762769311549e-05,0.00014980348884735512,0.004806868318447706,0.018840296422553804,32,30,76,61,4
4.763020424081385e-05,0.00016893430399741522,0.004724409682933219,0.018816282170114357,32,30,76,61,4
4.961221913664583e-05,0.00016689285071432987,0.004801445652641089,0.01864480087727929,24,28,70,57,4
4.9405862121707925e-05,0.00014443163213176814,0.004682509788840462,0.016348749777977834,24,24,68,68,4
4.9054199504677584e-05,0.00013652419595678634,0.004806785662368222,0.01528307215933329,32,26,74,75,4
4.555137806664933e-05,0.00011605583310525182,0.004558442725678135,0.014103896581709323,26,18,80,72,4
4.636395355873957e-05,0.00015056958739828382,0.004726680283733915,0.0167120691184676,34,12,80,71,4
4.700786830195425e-05,0.00014851427551939805,0.004749989763948629,0.0165197141050272,30,10,84,71,4
4.694640502627621e-05,0.00015654251848303837,0.0045537947016282,0.01668573179249342,26,12,76,70,4
4.796135674273427e-05,0.0001781680034013043,0.004742144381181545,0.01822085324039879,32,16,68,66,4
0.0006967084799374798,0.0003285757740906312,0.03891811977375772,0.03849917611860597,4,14,102,69,4
0.0023643242452544844,0.00045370335971947254,0.1299849042207266,0.04937746168936565,7,22,35,57,4
0.0025113972205032167,0.0004526678055675089,0.1377736010627577,0.05307006166535336,6,22,50,55,4
0.0020313232585315853,0.00042925623353204075,0.11673499726739314,0.052366215034457826,4,24,64,60,4
0.0018806883585503794,0.00041883752534053244,0.11066114751588368,0.04951850658867672,4,22,58,64,4
0.00016538190594785345,0.00037431419041796205,0.02254089472274185,0.04759084395365355,14,28,69,67,4
0.00011247694032320266,0.00037059574987888185,0.011889730551498565,0.045328163395402486,20,22,70,63,4
7.414675291337171e-05,0.0003226599522972113,0.006646911419374753,0.0407849522513054,25,24,68,64,4
7.921360562738398e-05,0.0002956497058855631,0.0060618681916659155,0.036774765202481074,18,24,68,60,4
8.48153423530591e-05,0.00025507291067729953,0.005870707136597379,0.03314977762338626,24,18,80,63,4
8.350055719518654e-05,0.00023311100487174665,0.005430787608523717,0.03237137545885945,18,16,75,70,4
7.621007659605611e-05,0.0002343671566903395,0.004805410136364262,0.03111858110414333,17,16,70,70,4
6.529323986696556e-05,0.00017779937227909695,0.00484716771095733,0.023923497389269955,18,20,68,71,4
5.248836333517369e-05,0.00014731644173414659,0.0046601490247489405,0.021453340227132602,28,24,68,75,4
5.299055450889029e-05,0.00041108491956904166,0.004751904975555434,0.04288093537527348,30,18,72,59,4
6.063404511053349e-05,0.0004368203221479482,0.004844110727335796,0.04710533119796633,20,14,66,56,4
5.839531473944997e-05,0.0004741327115083316,0.004810651333946584,0.05014218086428741,22,16,72,52,4
6.053561495875119e-05,0.00042782990512282225,0.0050791720347881444,0.0507223673558612,22,16,67,54,4
6.0554877969402614e-05,0.0002588797916705799,0.005226496664174553,0.03122903450967811,26,30,68,61,4
5.499398611500356e-05,0.00027369149605620003,0.005208485248124869,0.03737089339701865,22,26,70,64,4
5.459177653888562e-05,0.00023413024643085026,0.005129266834946405,0.0320110460345692,32,24,74,65,4
0.00020908974471610067,0.0005359204315455187,0.034197150870880114,0.07808200322839356,34,34,85,68,0
0.00025195767694998915,0.0005965446135750639,0.044330644346546884,0.08012401101483892,32,30,85,65,0
0.00023376339070081963,0.0005602684691763081,0.043745023225689725,0.08012952626045017,36,30,91,74,0
0.0002769721419162412,0.0006033891875207751,0.046924946912542176,0.08499295606303954,33,28,88,72,0
0.0002738538083499612,0.0006058329951538039,0.045187329497842085,0.07895703524890814,24,24,81,70,0
0.0002100231444121331,0.0005729667369600067,0.03263722289856359,0.08061599272329113,23,26,79,63,0
0.00022994732873073787,0.0005362445007244774,0.033547742022282945,0.07664998103715681,22,26,79,59,0
0.0001895363523977388,0.0005403777435932512,0.026944263806492983,0.0760199806912606,20,32,78,60,0
0.0001822940345384091,0.000616027908607042,0.0250583354182499,0.08346721724439725,22,34,78,57,0
0.00036718706356637096,0.0006702353659007534,0.03733192052708522,0.08571636529870746,16,30,68,61,0
0.0004243094792013261,0.0008084314163720385,0.043156591833602966,0.10309094772691463,20,24,61,67,0
0.0005057910416235785,0.0009097895704484938,0.051879955281066745,0.11812895686008912,26,24,60,68,0
0.0004906029347710751,0.0008707544228612603,0.05204489213752996,0.11382092908792603,26,24,62,71,0
0.00039309761502309167,0.000883276560833878,0.045821351833956823,0.11922108077357582,26,26,69,73,0
0.00032790704787762147,0.0007642491048409657,0.04370524490766852,0.10734811621705714,30,32,74,75,0
0.0002603007728467423,0.0006351245900047535,0.038892930887905644,0.0897088843514439,30,32,81,75,0
0.0002504340604892901,0.000607622409604918,0.03292203924503894,0.09198011403245591,24,34,79,76,0
0.00022445648727818692,0.0006607623653274179,0.03194761971260261,0.09896388815111282,26,36,81,71,0
0.00020380667667567852,0.0006844462687569221,0.028365000946215878,0.10241202829443297,22,36,75,73,0
0.00019327795979068763,0.0007117518030288296,0.026100312741368214,0.10946120997127858,25,40,75,72,0
0.0001928578985291878,0.0007419833357543728,0.025855788463566832,0.10744390628497377,24,34,79,71,0
0.00021000854354591102,0.0007027261851177865,0.027610334764830862,0.10373064645364648,30,34,70,75,0
0.00022497983378002608,0.0006334427833013455,0.03109452911514671,0.09367327389523392,30,32,68,73,0
0.00018763081671441798,0.000648583206639863,0.030831745108700966,0.09348446772030933,36,32,74,69,0
0.00019299438811876238,0.0006186715683043257,0.031193336501432096,0.09357070858988337,34,30,73,66,0
0.00017208794882903687,0.0005532479770573937,0.02872321536633826,0.08595372065377932,32,34,84,67,0
0.0001799939732072426,0.0006177873390173579,0.028581506080709737,0.09071523330154757,30,34,85,69,0
0.0001843012193016528,0.0005602223327948209,0.028068694273236924,0.08532797161761747,26,38,84,73,0
0.00020102843953268928,0.0005198993508834484,0.029985859113553857,0.08185174096803036,24,44,81,77,0
0.00020636027462079886,0.0005413424271073257,0.030697599027177776,0.08287609170167896,30,36,77,72,0
0.00019764735151707306,0.0005399141729587598,0.02803769363366091,0.08037890936022585,28,36,77,71,0
0.00019580309325084182,0.0005645334687419106,0.027001021021346747,0.08424169272471857,38,38,79,70,0
0.0001588529787362005,0.0006041607089512717,0.02459270902991708,0.0871717319620118,42,30,83,69,0
0.00014374662283579416,0.000583227423150241,0.023572794941647157,0.08599651330883529,50,30,83,68,0
0.00017017316429571795,0.0005817782639401343,0.025563635072212664,0.08426050370749613,40,30,84,71,0
0.00019326315157619983,0.0006214099083289898,0.02594985044754693,0.08321759831145616,30,34,75,69,0
0.00016942285154875717,0.0005098937797071192,0.02516452192402605,0.08005731524078973,30,36,78,68,0
0.000170664733118085,0.0005071791553584312,0.026969374671157977,0.07715672424855123,40,40,75,70,0
0.00015464951612234517,0.0005069874928771776,0.023478116748609466,0.07915837050874786,32,36,75,69,0
0.0001558993319362458,0.0005515915494363989,0.024959828922234778,0.08030932160070138,34,30,81,63,0
0.00017763063181664763,0.0006118875199254477,0.02671158155272404,0.085128153625245,30,34,81,62,0
0.00017880906232623195,0.0006766226002960087,0.025095679575578515,0.09390334264480783,32,28,79,65,0
0.00021265122545797787,0.000738532057824288,0.03343094065575621,0.09268096666372845,30,26,73,66,0
0.00023002727348338126,0.0006803102358226604,0.03283433512078099,0.09186574332642798,28,24,63,71,0
0.00019185465838474783,0.0005687590075368875,0.03123457180107678,0.08126374411259253,34,24,68,75,0
0.00019563740052540562,0.0004919955140696958,0.028793860041045293,0.07042349555450972,34,28,75,78,0
0.0001424457373623956,0.00044507469911618416,0.02186502679785964,0.0687553951016084,32,36,77,74,0
0.00014647665055785697,0.0004793915224379313,0.022182003405935992,0.07307182598031427,30,30,79,71,0
0.00013444735247809285,0.0004968865756767113,0.020787000734166446,0.07362751349445733,28,32,79,68,0
0.00018805273178170177,0.0009618757079975128,0.03057247899947057,0.13283926161457563,34,24,74,63,1
0.00019246728317269792,0.0012130534704609776,0.028394628800729727,0.1538093732223339,38,20,68,56,1
0.00027035216954762324,0.0010294889543435365,0.035130303586833965,0.1242342970317962,28,12,68,55,1
0.0002819976681194081,0.0010620106029683542,0.035023669895387285,0.12908752927800113,26,14,65,55,1
0.00033984638758586183,0.001172529019244926,0.04012221316991716,0.13942551583542429,22,18,60,55,1
0.00041270443751995214,0.001070988862616339,0.04459296564006157,0.13392764432795953,21,18,62,56,1
0.0003436409286386516,0.0012530171771837054,0.041036544064022525,0.15629244907791934,24,20,58,53,1
0.0003617846413852086,0.000976290668322815,0.04257350690412595,0.11873731112072405,28,24,61,57,1
0.00029012842149020543,0.0009415541280392115,0.03455772401695854,0.11257638533803951,26,22,68,63,1
0.0005543399269652439,0.0013667695924369499,0.048060518831240705,0.16718046687187862,16,22,58,61,1
0.0005851887535805709,0.0015501309864343995,0.051598068523584964,0.19618871166806628,16,26,58,60,1
0.0006447414788837096,0.001717409763547976,0.05505176204376157,0.21800845401267144,18,22,54,60,1
0.0005487874709869045,0.0016664241014782994,0.06675646168163386,0.22468815717955062,26,20,60,61,1
0.0005777879465894674,0.001660626592951474,0.07184815175855959,0.21755593466173473,30,18,66,56,1
0.0006229654946678402,0.0016134795547144394,0.07350725822197936,0.20719852486522217,26,20,74,57,1
0.0006442429516692972,0.0015867469381128044,0.0810949796768195,0.21486350245975902,26,24,70,57,1
0.0004633502317268111,0.0016161586550126695,0.06383915937276788,0.22308210670780895,28,26,77,58,1
0.0005114431688715529,0.0016739212174865245,0.06896626085885875,0.22918659304538325,30,28,69,60,1
0.0005081637533494997,0.0015959163363676928,0.07084708258541701,0.23624450657900933,32,32,68,62,1
0.0004502443967563835,0.0016548685079510795,0.06701825765625882,0.24747321848924259,40,32,65,64,1
0.0004700695187718857,0.0016894917669972142,0.06581601978853295,0.2614209339002462,34,32,69,67,1
0.00042719267811903305,0.0015055909302966741,0.06104903734637399,0.2373990953776044,30,30,70,68,1
0.0004693344575755423,0.0014165190151200473,0.06625972835452003,0.23416365750261206,38,32,71,70,1
0.0004651455384331546,0.0011877982500085329,0.06375522135459216,0.19976595432405794,42,32,70,78,1
0.00043283907268403985,0.0011115033335385414,0.0626578538369909,0.16636705562925197,34,30,72,78,1
0.00047249173449280665,0.0012683270084463127,0.06550290939062849,0.18131431958540747,32,28,68,74,1
0.0004126623554148425,0.0012315885946629988,0.06013844445252236,0.18339170407750338,24,32,75,72,1
0.0005654962123406274,0.001660689985559497,0.07459235969188356,0.22813599792447276,28,26,70,64,1
0.0005786918299523668,0.0017042706210976494,0.08391638446693081,0.2432246233674659,34,28,69,66,1
0.0005421858429702487,0.0015449455999039833,0.07667908160311218,0.2166427429651421,28,28,65,63,1
0.0005294463426399597,0.0015851627072201566,0.0737118530524336,0.2023643441298161,28,24,64,64,1
0.00042375985729757056,0.0015621087855030252,0.05889778412520735,0.19966325691764714,34,30,60,56,1
0.0003923481996547303,0.0017244049302622946,0.051959389268501,0.22505799437049484,30,26,59,57,1
0.00035461264526476846,0.0020232123975715273,0.051167560549570376,0.25812039674866316,36,26,59,63,1
0.0003624231365250033,0.0024258902505874414,0.05366097721645334,0.29301929335491933,40,28,66,59,1
0.00032064146075592217,0.0024880589174073892,0.04801135143028517,0.3097885239989314,40,28,71,55,1
0.0003298371669269852,0.0023476154109486553,0.048084214487636855,0.275882351133697,36,20,71,55,1
0.00028247908004287633,0.002116559949458103,0.042400200437169924,0.2452274857840617,32,20,72,56,1
0.0002266323146969801,0.0016336053068741199,0.03230197956738786,0.18833672259621664,22,16,75,58,1
0.00021288696514712495,0.0012099878946702164,0.028658496730253034,0.11916324870449754,22,6,65,52,1
0.0001872834130359215,0.0009780685178027444,0.023757930385043303,0.08323592325231421,18,8,66,58,1
0.00024534358486876754,0.001066061802627375,0.024624206202577943,0.10150478075256399,18,16,70,47,1
0.000347902100967365,0.0013017500933557807,0.03216482906769769,0.14567138651277287,18,12,66,50,1
0.0004668173106507703,0.0019666647053190735,0.04942841823504764,0.2426328053022971,20,18,63,58,1
0.0005280924253481373,0.0030495621858911567,0.05950331151291426,0.3943449218950394,22,28,59,49,1
0.0005976443845185216,0.003310533264725125,0.06808952337745472,0.45090040802745235,20,30,61,54,1
0.0006446208943792865,0.0034266796621586454,0.07583551286983164,0.46599143890230077,26,32,68,61,1
0.0005993197873809062,0.003493594120407026,0.07122832572856609,0.46175516624988083,26,26,71,61,1
0.0005080880719841084,0.003090419349035843,0.06368583235418998,0.37711042592479593,28,24,71,58,1
0.0010277377523248096,0.00018357471845689387,0.201536744934488,0.03258133620002084,46,36,93,89,2
0.0009457061791346702,0.00015167577509547856,0.19337771042393748,0.030935283189850442,42,42,95,92,2
0.0009771233661663927,0.00016064393599915335,0.1993140397506463,0.03159922608560783,44,46,93,89,2
0.0009339163514792742,0.00015983456987579827,0.1914362497454934,0.029842423848701633,42,42,96,90,2
0.0008602591322862628,0.00016474769099552786,0.17238491638079909,0.02904223494460508,38,38,92,91,2
0.0008116220383929295,0.00018080101456611808,0.17598919417123945,0.029050984098769873,50,28,95,87,2
0.0008234911906620587,0.00018461961023442732,0.17271698037225214,0.02854594109195436,44,28,94,90,2
0.0008714248040085588,0.00018206489437472436,0.1692828744381641,0.02727668556505925,40,34,89,91,2
0.000944244761253572,0.00021925272124231914,0.18260509890407883,0.028220854843684175,46,34,89,93,2
0.0008816050831505321,0.0011912941583271386,0.14483794656360408,0.07239597894917647,34,4,86,68,2
0.0007104373466845031,0.0011916949077526798,0.10784220384650361,0.0679767981336974,28,4,79,67,2
0.0005411455652921519,0.0011464021532414726,0.07313256034942062,0.06450071435358445,20,4,73,64,2
0.0003504269881907861,0.00010607332269807325,0.03726061839434537,0.012899464125202095,24,28,58,70,2
0.0004491036742325485,0.00015390255635898084,0.05261855175188122,0.01762249635081252,30,20,54,75,2
0.0005922265860649452,0.00020303193060112679,0.09241045897403198,0.027114572915927008,34,26,66,75,2
0.0009327543395415124,0.0002461120645243193,0.1576429615988156,0.036037913931171964,28,28,66,86,2
0.0011939070808841075,0.00031251691778557794,0.23391204297096285,0.05002678683527803,36,32,73,88,2
0.0014400774889738233,0.00029811128131755746,0.2879217267741142,0.05461392622527734,44,46,83,86,2
0.001499508235293035,0.00028396979499827697,0.3031009181969104,0.05692536193920338,44,50,84,92,2
0.0014341094846427513,0.00031087712115038414,0.31020601430527417,0.061007791852848214,48,50,90,89,2
0.0016003455533589598,0.00031661353199639365,0.3084528217939995,0.05830178077202977,52,44,91,89,2
0.001473681553911442,0.0002998608862836425,0.29337565221891604,0.05908395881251161,50,46,89,89,2
0.001546409383590946,0.0003141603855428095,0.29167304291619073,0.05621181549294543,38,42,86,82,2
0.0014748316912352789,0.00029012482374999335,0.2661281312296415,0.051356944268649084,44,42,91,84,2
0.0013317892401007506,0.0002765783044504048,0.2322017530891066,0.04861525886992436,46,36,91,85,2
0.0012787914710942296,0.0002536366780451372,0.24111076773704082,0.045022093583952164,40,42,93,86,2
0.0012124993423550503,0.00022559801046304078,0.22937052692208676,0.04156390504115899,54,36,95,81,2
0.0011746259661579847,0.0001972908520838892,0.22078613553210935,0.037893380905631865,36,38,89,91,2
0.001139949527279665,0.00017222120124990727,0.2182179435746976,0.03394718556312998,38,42,93,90,2
0.0010949196508978206,0.00019893282299687475,0.212181337871703,0.03788795492561097,40,42,94,91,2
0.0010791951954273603,0.00023536584427492942,0.21314735168844282,0.041000237220821946,38,34,94,91,2
0.0010969608969469142,0.0002356549766174638,0.2131109768392394,0.042318314594455224,40,40,95,86,2
0.0012065605989764355,0.00022506430395043557,0.22015176804583392,0.04276887490390907,40,36,90,95,2
0.0012364310656753901,0.0001889597923817944,0.23017354404063542,0.03620620204947616,44,42,88,99,2
0.0012896414359891259,0.00016459898186896839,0.22487204887370132,0.03303677606079262,42,48,86,99,2
0.0013718156218181176,0.00017555162071685262,0.2337220853075964,0.03672265979574254,36,42,82,103,2
0.0012319563880432026,0.0001653257948405607,0.22464757438444422,0.03497017598373563,38,44,84,99,2
0.0012196449781372103,0.00018568406322566438,0.21763506689750442,0.03588909630465437,38,42,88,99,2
0.001173320689951372,0.00018914208011155286,0.2141058007514067,0.03839591782585827,38,40,91,96,2
0.0011529251975098734,0.00018609508576046446,0.21360946398688085,0.0337172164120439,40,36,87,95,2
0.0012025193724732204,0.0001842932721293645,0.21632956763528163,0.03472349075036011,40,40,87,90,2
0.001049611539751336,0.0001662954427653088,0.19474201071659325,0.032496013387210726,42,42,81,98,2
0.001127707953134019,0.00015064720919506983,0.1984465410762959,0.02850808760578713,42,44,84,93,2
0.0010312280143189197,0.00014303869822265077,0.17638295906038892,0.027149102461637195,36,50,90,94,2
0.0009624310700405618,0.00014089115718651928,0.17910842557187356,0.027101835791977013,38,54,94,92,2
0.0009383993710811262,0.00015771611228601452,0.18058677753998298,0.027651469661316253,40,48,96,91,2
0.0007792398394902275,0.00015007160216570998,0.1582197807736553,0.026123521778713653,44,44,98,87,2
0.0008095119837966825,0.00015301515531503676,0.1518609731851705,0.026897790546936896,42,50,91,86,2
0.0007193027099990924,0.00016038250835455432,0.12739873273301278,0.02776452981636276,44,40,90,82,2
0.0001523023105610299,0.001564645395927582,0.026070872100268785,0.21778864182881438,36,28,74,75,3
0.0001353925808776825,0.001444855834383257,0.02244305216700762,0.19899388514967148,34,26,74,71,3
0.0001254579824332688,0.0011924342458063183,0.019013974368471683,0.17613238831756417,34,28,77,76,3
0.00012843024236387231,0.0012404625252423309,0.018425800699571653,0.189264196099633,28,30,81,76,3
0.00013195730117016624,0.0013109722302186546,0.019327075819660762,0.20650030611509537,34,26,79,74,3
0.00012966284269570549,0.001141522160276387,0.0182770029868102,0.18961465029543811,34,30,80,73,3
0.0001312397952944279,0.0013596417292226664,0.018778586407319876,0.21968127367244963,32,28,79,74,3
0.00013047773645723487,0.0014256750406973775,0.02073501490895965,0.21870188982960104,30,24,78,75,3
0.00012873231374949652,0.0015124107659624942,0.021390478309180692,0.22354960377555774,40,28,82,66,3
0.00017430285128542994,0.010756921379836873,0.02229908319661515,0.6706979618054834,24,4,88,61,3
0.00016803088348996915,0.011003416199492728,0.0214433167276885,0.6910491276510684,30,6,85,51,3
0.0001629841371899899,0.010979476805735314,0.020017596003788045,0.7106670130995567,28,6,80,52,3
0.00013865386286419915,0.002295549068397499,0.018289589310324126,0.319595658297441,30,24,73,66,3
0.00012630097438309331,0.002082323155260989,0.019698830509479633,0.29408167153181775,26,24,69,70,3
0.00013672471491750913,0.0018394292814899636,0.01952538404966937,0.2778365468692144,28,30,74,66,3
0.00012995994147427638,0.001595387122661729,0.019022534281345406,0.25834068240109614,24,36,78,68,3
0.0001443853374665107,0.0016122513338957655,0.019232965297983035,0.2660683518793801,28,38,75,70,3
0.0001461725092958045,0.0017340861449713593,0.020184724433209192,0.285170789565083,26,36,79,68,3
0.0001563786210027427,0.0016762009181142481,0.022631867284522683,0.27596880889342296,32,30,80,73,3
0.0001649667115099525,0.0018280323297859495,0.0230443828359274,0.28557530740060605,32,34,77,68,3
0.00017491844275990365,0.002006527194698943,0.025588890989705584,0.3107058655857901,28,32,77,67,3
0.00017696073653778108,0.0020625401621400313,0.02676276633800497,0.31817065540311973,34,34,76,72,3
0.00017119557646922236,0.0023825350137844,0.026909394243067333,0.3618084823419394,34,30,75,70,3
0.0001763985112908583,0.002437014751771574,0.02836512642237888,0.35756370303006246,34,30,75,70,3
0.0001630003559133118,0.0023966645982346235,0.025600312755736196,0.34873874726029647,34,32,78,74,3
0.00017241328990306933,0.0022470281193062193,0.025532450508480225,0.351374133446222,34,34,76,72,3
0.0001709636156991103,0.002188013199588696,0.024593151852204932,0.315524974928379,30,30,75,68,3
0.00016771760499772171,0.001989415535225783,0.023871668614212797,0.3105137015578416,40,36,78,76,3
0.0001852755555203031,0.0020920656781067445,0.02290966317870181,0.3000204133480321,26,32,71,67,3
0.0001792246546622489,0.001804735175938822,0.021195573149958957,0.27250187336017284,24,26,83,76,3
0.00016246480350971105,0.001609878180896051,0.0216532582369888,0.25709468716167155,26,32,83,78,3
0.0001555810929059714,0.0015961714655126807,0.021857051696459493,0.26067163923543046,30,34,81,77,3
0.00014350488182222882,0.001553834451732076,0.022248388511532408,0.24770654947803564,34,38,88,82,3
0.00013489638320214316,0.0015400293869983089,0.02130654286641131,0.23348996156631777,42,28,85,76,3
0.00012740604447518557,0.0015707205895080867,0.02091918853322949,0.2366918325810917,40,30,80,78,3
0.0001255676782770717,0.0015304847712775997,0.01988246359630087,0.22220797414926483,45,20,80,76,3
0.00013475498108954937,0.0016340705782255304,0.021495374782530195,0.23830806937279808,34,22,79,71,3
0.0001335725999002299,0.0017316846158144756,0.021118886921542596,0.25118079955500716,40,22,76,60,3
0.00013138800787277548,0.0016120102987213036,0.019304915097964618,0.2267978906111977,34,20,73,61,3
0.00011605260446420234,0.0014540351359537637,0.017940923786467906,0.21422178449250423,30,24,76,62,3
0.00011427830315400978,0.0011489574232723156,0.016295746189115293,0.17541935955445598,34,28,74,71,3
0.00012219391240322994,0.0010830215197961534,0.0173074560833358,0.17772293992865945,40,34,76,74,3
0.00013087998673763328,0.0012115859500363966,0.01791194583159922,0.20199575359250224,36,32,80,71,3
0.00012688688201968607,0.001237167969615139,0.017562240323005626,0.1917557859885968,40,28,80,70,3
0.000122982146915966,0.0012300173685789394,0.016875461094722776,0.18835649386830935,34,34,84,65,3
0.00010851392502771397,0.001285361709351713,0.01567421565384074,0.18545220737542534,36,26,76,69,3
0.00012047265126995277,0.0013916579963548317,0.0163571739738558,0.2041851874461063,38,32,77,70,3
0.00013340616114493036,0.001445242313687927,0.017014759823945697,0.21131615435635945,31,32,75,76,3
0.00011781777696202128,0.0014666902124463614,0.015997875880624887,0.22089237039498527,38,30,69,74,3
5.401798177713797e-05,0.00017902426178161753,0.0048936663416143614,0.020928052917503288,34,14,67,59,4
5.425722280174323e-05,0.00015464899183688168,0.0050030345142907905,0.017518991592237198,28,12,71,64,4
5.495289221944845e-05,0.0001593601214981763,0.004972970787406228,0.01757156582733991,28,12,75,60,4
5.369888110698571e-05,0.0001335581215259875,0.004923381628646756,0.012688589403380749,28,14,79,58,4
5.773767901526992e-05,0.00010227158326237809,0.005009706744804552,0.010464668827056793,28,10,73,67,4
5.4191321173976015e-05,0.00011694452940653721,0.004929665706164969,0.011586265781259224,26,12,69,67,4
5.493632055812556e-05,0.00010345328005871552,0.0048858894323275635,0.009680652084477166,24,14,69,69,4
5.664410296366603e-05,8.01964851307269e-05,0.004897574889476463,0.009262905987605869,32,22,67,73,4
5.2606713078940816e-05,8.28541505182854e-05,0.004635593416890312,0.010582983423694396,30,24,69,73,4
5.293119059846532e-05,7.351581241224718e-05,0.004654964316560075,0.010412399479224612,34,32,72,75,4
5.294558372509488e-05,9.708028163260805e-05,0.004666497301455344,0.013225623604798523,26,30,73,70,4
5.2815602994164313e-05,9.444951844524351e-05,0.004801616077297308,0.013011606478126285,32,26,75,69,4
5.320989509415005e-05,0.00011673910855270027,0.004943220376834911,0.015099050153389668,32,24,79,65,4
5.469631752016915e-05,0.00011690521814541968,0.005098156641077663,0.014562013837692374,28,22,79,65,4
5.448812103044569e-05,9.879942559781577e-05,0.004894705837092767,0.012357720402685088,28,20,76,78,4
5.6709040716764774e-05,9.681140583762261e-05,0.004763459379288743,0.01205199699221492,30,22,77,79,4
5.764052416166242e-05,7.311897948070851e-05,0.00469042567157853,0.009576733889101434,28,20,80,85,4
5.9000210619211326e-05,8.11173929223521e-05,0.004759440281249592,0.010368756381790526,32,24,74,74,4
0.00013286302803885565,0.000997044747388328,0.009825336243525053,0.05754037841989012,8,4,76,74,4
0.0006449319804184986,0.0015152019444598674,0.03795025654480928,0.08557890305733047,7,6,47,33,4
0.000655408019355291,0.0015515047024741721,0.037677136845000986,0.08636082150683996,8,6,62,34,4
0.0005840037107891388,0.00074589402029811,0.03311266585210512,0.04730274827623606,4,8,80,66,4
0.0005438513817011636,0.0007086985972154024,0.030427567182862568,0.045662218094160476,4,8,87,71,4
4.977611144217089e-05,0.00010250376513707726,0.004398579913667301,0.012080199701842185,25,14,69,59,4
4.761873707439992e-05,0.00011153286920754944,0.004368677395480073,0.013463919253592204,26,15,71,66,4
4.972602016291239e-05,0.00015159129595597576,0.004452824729866306,0.014856149268781831,31,14,74,55,4
4.6550365939051285e-05,0.00012063125484938461,0.004122867260937236,0.013427485800882556,26,16,76,69,4
4.800535061877728e-05,0.00013517521443524578,0.004270244826929195,0.014844299511090798,25,16,72,67,4
5.01198943037971e-05,0.00012056229005889509,0.004488693744244863,0.013388047576569808,22,18,71,63,4
4.874733852013451e-05,0.0001251648093419984,0.004742730161969961,0.01148832454335603,31,16,71,60,4
4.7334543073163355e-05,8.06055813257355e-05,0.004839467105519049,0.010564167202939524,34,20,73,66,4
4.902297458780778e-05,7.376981636613544e-05,0.0048205823113081575,0.009960925240063385,37,22,75,64,4
5.1818937595505735e-05,8.073664141345364e-05,0.004724727628538457,0.010040411909678585,28,18,73,69,4
5.044403435259902e-05,8.297946464672372e-05,0.004559555113624587,0.010422475199975146,31,16,81,66,4
4.817747358800358e-05,8.010315569008732e-05,0.004718228662523403,0.010619107696417362,32,21,81,71,4
4.904924108338519e-05,9.636147283206199e-05,0.004575201552912405,0.012443598017607612,31,24,70,68,4
5.135574546157058e-05,9.657690448276182e-05,0.004622200316753554,0.01277186894549557,24,27,68,66,4
5.3496338415322625e-05,0.00010150148733132046,0.004656080190142919,0.012275452407205484,25,24,73,64,4
5.047274374259388e-05,8.739720124833338e-05,0.0043813432184723776,0.011205661699515028,24,30,64,65,4
4.867171251323017e-05,7.695133187106497e-05,0.0047770815727238135,0.009112907441219724,33,24,73,68,4
5.019240758957531e-05,6.758474953809284e-05,0.004727670466100762,0.007944263264228838,28,25,77,61,4
4.881454836113286e-05,7.159787973316831e-05,0.0047973031144588965,0.008715038772599049,27,20,81,56,4
5.070439310994852e-05,7.816769016001669e-05,0.005025055799338425,0.009757006692903488,30,22,83,56,4
5.234495439187058e-05,8.323527573916792e-05,0.0049772514810135695,0.009614134295677788,29,22,80,59,4
5.3190038056673295e-05,7.984749920075033e-05,0.00504963942458694,0.01016927355268751,28,16,79,71,4
5.24944557529053e-05,9.486419455566336e-05,0.005240754106814062,0.011695488651140036,29,14,75,74,4
5.406183207960655e-05,8.927109428199282e-05,0.00483095974583855,0.010772033219298033,26,14,74,85,4
5.3275912646177355e-05,9.248074659882139e-05,0.004678770503990729,0.011199905031239464,25,18,79,81,4
5.212879282283464e-05,9.680092557381843e-05,0.004617864265741608,0.012124818292685403,30,14,81,73,4
0.00037043879843862214,0.0009703984355109854,0.05993835535786353,0.12729578160871188,22,18,75,68,0
0.0003716230546860196,0.0009107558100386182,0.057786495357842346,0.12569935689235326,20,22,69,66,0
0.0003956909102580534,0.0008829719621105885,0.05787654776416899,0.13704175962536944,24,24,70,61,0
0.00031992680881722045,0.0007704848347880641,0.052133924349947465,0.12218770940259838,22,32,69,66,0
0.0003500774605638367,0.0008034983401826909,0.05291585016572182,0.12260016108726063,24,32,68,66,0
0.0003369602562885264,0.0007607427682569996,0.05207688616999702,0.11344845657009518,28,28,76,68,0
0.00036138833431191943,0.0007245547145525981,0.05701623112751962,0.10677779335505383,36,32,74,69,0
0.00036463818000371324,0.0007742190757624699,0.05874474794777201,0.11535131902827293,36,26,81,66,0
0.0003326265709060187,0.0007147285623382096,0.05700556587296112,0.11088443179712969,42,26,83,64,0
0.00034072928531023546,0.0006812160097406229,0.05411010956671843,0.0994662611385626,46,34,79,69,0
0.0003201531603390108,0.0007985421750725745,0.047553153580269326,0.1059550862754282,44,32,80,70,0
0.0002940923573346901,0.0007764412018481669,0.04603277251195488,0.09943658571084794,36,26,73,72,0
0.00027493519235810966,0.0007274697823595864,0.043202060147512926,0.096084001232679,40,24,76,75,0
0.00031593333331691705,0.0007828178869662817,0.05028681001608505,0.11365258364893234,34,24,75,72,0
0.00032356250867175674,0.0007646230781851024,0.05064648412862879,0.11402090685107773,36,30,75,70,0
0.0003561015795613875,0.0009118125161625834,0.05412888052031144,0.12668209140248254,30,32,75,69,0
0.000340186224356938,0.0009107439562915506,0.05039149526574718,0.13128441029382507,38,36,79,69,0
0.00027208071952910986,0.0008633003289413385,0.043762664862658736,0.12201502440821063,36,40,73,69,0
0.00025587385607866374,0.0007986841798829597,0.04212673628084644,0.11011528507000679,32,42,82,70,0
0.00024228007015014605,0.0006839631166654573,0.03821862520220541,0.0946424881937829,28,30,84,65,0
0.00025992313422837517,0.0006807229795509858,0.04446196624958078,0.09779465646434758,26,28,80,67,0
0.00030172689625809323,0.0006229154968125772,0.040111456636149276,0.08613119958060887,26,26,77,63,0
0.00023402441720347359,0.0005999031479076812,0.03778211849561345,0.08814368190691697,32,28,74,66,0
0.00022335905208067553,0.0005590301826778961,0.03697306845631467,0.08414140377365484,32,28,76,69,0
0.0002080404469807537,0.0010765132947301954,0.030730513015414827,0.12600647332086262,22,20,83,61,1
0.00020429476488371433,0.0012290512179756994,0.02741690104118498,0.14700159953565245,30,24,83,64,1
0.00023367189839655265,0.0012877422650470133,0.028429844614547888,0.15085000599181797,30,30,75,64,1
0.00024626706215937237,0.0011703382759034422,0.03433511665618363,0.14258358183208997,30,32,65,64,1
0.0002459835393306462,0.001099759728048835,0.03528037177193186,0.12821635495228892,22,34,66,60,1
0.00024881786736847807,0.0009257740334248788,0.0362051574386364,0.11515058608306167,30,28,68,56,1
0.00023884312322368357,0.0009377124097548202,0.03511803716188908,0.11527962986734298,32,26,77,59,1
0.0002069379116985026,0.0008790829129473281,0.030362615147182193,0.1141788248114259,32,24,77,61,1
0.0001809949591770255,0.0008055191984200498,0.024797770408047305,0.11166766631806037,32,24,80,63,1
0.00015017522272480798,0.0008476633878984491,0.022752148935028207,0.11703456038294871,38,26,82,68,1
0.00015756704855214788,0.0009347781852237864,0.0260978971217936,0.13427520047985272,44,26,77,64,1
0.00021118848306414295,0.0009415749998057572,0.03129513518399556,0.12994668091069148,36,32,77,62,1
0.0003142023358725019,0.0010797517903923146,0.04070966566925905,0.12855934305953376,38,24,75,56,1
0.00036036926438043766,0.0010810357135143415,0.04458208566512562,0.1367186441914532,36,24,76,55,1
0.00036951195535656273,0.0009901764022960935,0.04512215291869528,0.12382810423678897,32,30,75,57,1
0.0003636314964915406,0.0010285553233721318,0.04803546666233569,0.1283424070416063,36,26,70,59,1
0.000309102659134201,0.0011313465235411103,0.04222973811202866,0.141163064212445,34,34,71,54,1
0.00029371532317522655,0.001074705745995079,0.041308737652901245,0.13468076131986645,32,26,72,57,1
0.0002717984344497787,0.0009291775075461464,0.03823471094341623,0.12717862815623646,38,26,68,53,1
0.00022229587505684555,0.0008123862872604189,0.033084056154431205,0.11024593930636847,28,28,76,54,1
0.00022856105512812335,0.0006289180159647634,0.0345239568760134,0.09328647690038046,26,30,73,63,1
0.00022201137456516774,0.0005194140992627247,0.03398646252863894,0.07613740519181716,36,34,74,71,1
0.0002031824273646489,0.000646922196343308,0.03171304646486332,0.09548502478854892,28,30,72,63,1
0.00021176854370471537,0.0009882794641570213,0.031432978347583136,0.13399023326589335,34,32,71,62,1
0.0008090154415629491,0.0002569926420683217,0.12370920620913013,0.03123020220620704,40,44,75,87,2
0.000947602804857046,0.0003218404129526585,0.1657664263467893,0.040860111437180505,34,40,81,86,2
0.0010834698223028047,0.0003154061153993705,0.20075391115903712,0.045882480694210616,36,44,85,87,2
0.0012111666921938997,0.00030007987838536284,0.22558076750180572,0.047724819259932064,50,32,94,87,2
0.0012521774825783147,0.00028588244200436486,0.23316957440541744,0.04853742391880797,40,40,90,90,2
0.0013351670294623026,0.00028025400324495234,0.2547241699186003,0.05328278390392809,44,42,90,92,2
0.0014313857681018877,0.00029936753242231314,0.2672706850824145,0.05490298359529033,42,48,91,87,2
0.001329724912172468,0.0003006734001666594,0.2524264864473776,0.05857620996760775,40,52,92,93,2
0.0013073074774794544,0.0003355432162200018,0.2562206786670148,0.062386617292478866,38,50,94,83,2
0.0012283988812548476,0.00032795124341722067,0.23227360127586105,0.05538556524000774,46,46,91,86,2
0.001265873834227055,0.00033102004375785315,0.23960893586983456,0.05567057753295592,44,44,91,84,2
0.0012625887123371468,0.00030665300499249876,0.23435221764266023,0.05165225508604588,42,42,95,85,2
0.0011976427528895067,0.00025372715806459665,0.2187757796693949,0.04616795747946854,36,38,86,94,2
0.00124297850334972,0.0002563961773602638,0.23325269185166683,0.047176400746071864,36,36,89,89,2
0.0012383186044709407,0.0002383276318182406,0.22077554380167005,0.044194891076488954,36,36,88,97,2
0.0012528137976209304,0.0002503021870548672,0.2253604582570058,0.043643777018735036,30,34,95,95,2
0.0011008402702843778,0.000255686858430367,0.21229472950001635,0.042762241035572884,34,34,92,86,2
0.0009906908932941084,0.00026856557017081043,0.19078742270101667,0.0401301365507471,38,38,93,86,2
0.0010998874952235737,0.0002764636477425051,0.1840800947502765,0.0407302232272767,42,48,82,81,2
0.0010594190762161372,0.00029154556133733045,0.17843069222274716,0.04164905932263879,38,40,80,79,2
0.0011228285788095211,0.00029208816879459595,0.19383224203487853,0.042514010864466,38,40,79,81,2
0.0011415740765372455,0.00029368258587935195,0.20267884782632203,0.04123868670383408,38,36,83,82,2
0.0010248943169561921,0.00022980077458921393,0.198943542019792,0.03712002945032138,42,38,88,87,2
0.0010493087544625709,0.00021408143005004183,0.2018739254452478,0.03510564705298956,36,36,88,87,2
0.00018527225007607115,0.0019035596646160976,0.031030041645358778,0.2891352394001385,34,26,76,68,3
0.00018738234077319015,0.002275071869390905,0.03039962002169674,0.3185908751909178,30,34,74,70,3
0.00018569180692367776,0.002272467496717273,0.030187262019004103,0.3089730111829246,28,32,78,61,3
0.0001748286936420001,0.0021352094364419333,0.026558341469906502,0.2766892921691083,28,24,77,66,3
0.00018543799395393914,0.0022444302840046136,0.027044435284810618,0.28804750742669327,32,22,74,66,3
0.0001903161332197789,0.002543284648473902,0.026902794370791783,0.29174155810385555,32,18,78,64,3
0.00020058976235908,0.0025838359633638935,0.02999002621755745,0.3471600949217594,42,24,73,58,3
0.00019876773105249483,0.0024702660469579827,0.03086007216107469,0.35700478095268556,40,26,80,65,3
0.0001770316252091548,0.002434531352725478,0.029428591186191566,0.34126438442032614,38,34,82,68,3
0.0001633794301524195,0.002441909606096485,0.027425877593582594,0.32999679353120787,38,34,85,69,3
0.00014606276793313285,0.0018565034856904417,0.0251697515253674,0.27686484923319143,34,28,87,70,3
0.00015903347173311152,0.0017295322965444374,0.026886823919879392,0.24639817609436132,32,28,86,72,3
0.00016219527590542304,0.0016720447302544098,0.027213617330513556,0.252302559127146,28,32,87,70,3
0.00017364626249680894,0.0016348763274425552,0.029753945926305325,0.2572152078382824,38,40,79,72,3
0.00017517628187430502,0.0016451974101477137,0.03028816793180078,0.2783341473671258,44,38,75,75,3
0.00017371837772256937,0.0017036809544725678,0.028843011095093955,0.30555995854213197,44,40,78,80,3
0.00018981815161445186,0.0019226635279666038,0.029732963392965713,0.3142395116390372,38,28,75,75,3
0.00019335048703834822,0.0017557917490865992,0.028814047209915546,0.2873441473641203,34,32,79,70,3
0.00019491776874587443,0.0018107126981391486,0.030818560626707132,0.2745739682417153,42,28,83,73,3
0.00019224244817623627,0.002026154654252513,0.030036509092582746,0.26349504169091315,36,32,80,62,3
0.0001781150559090247,0.002016480533359998,0.02940898467962846,0.28118765336652674,36,30,76,60,3
0.00018762062711692506,0.002175007576595849,0.03105276569887992,0.3048650203064008,34,30,78,59,3
0.00019009907543778866,0.0019319585075032763,0.03001396939200033,0.2816395254795359,36,28,76,62,3
0.00017496824399945308,0.0018321174914824802,0.028012839227624934,0.27001864900375394,40,34,78,72,3
5.491758391267725e-05,0.000262565269172815,0.00497021033467384,0.033937943575289516,36,14,78,65,4
5.41266142892157e-05,0.00026391381048511154,0.00482106362006768,0.034684786744719615,26,14,78,68,4
5.4227343850211367e-05,0.00030416703664355043,0.004877977371374054,0.03246003190054273,30,12,76,66,4
5.488701511467493e-05,0.0003215218671798455,0.005032979001919953,0.03675525765626787,24,21,80,65,4
5.537706372955901e-05,0.0003151359957392509,0.0049703340999924395,0.031960955034306876,28,8,72,64,4
5.2926544748254204e-05,0.000258391777155041,0.004970929140218371,0.02896539840714852,30,12,70,67,4
5.149564136859317e-05,0.0002490946114877141,0.00486016076125199,0.025005193661659816,28,12,68,56,4
5.3059827029049114e-05,0.00018543648670967365,0.004659876625176762,0.021673283976019784,28,16,70,65,4
5.05333420072663e-05,0.0002661194075665495,0.00448417829949345,0.025366085808052954,38,18,74,51,4
5.162355197726244e-05,0.00020764526525391715,0.004487625779372985,0.02511716317488665,38,16,73,56,4
0.00029354126749537397,0.000836539104112163,0.017793819124491204,0.07314893035327155,36,16,83,56,4
0.0003328780418942731,0.000926406449317836,0.01909175230974591,0.08100633722053224,34,12,64,60,4
0.0006125949585299957,0.001063817925241849,0.0328620629937472,0.08846578673204343,36,22,24,59,4
0.000601624656336816,0.0010183999816794963,0.032361855819158084,0.08834439945160491,38,16,36,62,4
0.00036628973894925644,0.000441888695081401,0.020209083876579822,0.04606672158330187,42,16,53,54,4
4.962789574142485e-05,0.0002726879759032495,0.004971961242343091,0.03438153575694946,36,18,76,66,4
5.45802414912214e-05,0.00021784305440763536,0.005148328741479808,0.027281568788499858,36,22,76,58,4
5.349636083611419e-05,0.00023229227560776737,0.0051354013961927335,0.024570623825030287,32,30,71,58,4
5.397251058806885e-05,0.00017260927461654665,0.004917728881112348,0.020001234101092658,32,30,73,61,4
5.5284764755994494e-05,0.00015250102674452604,0.004895489734514586,0.019017883826459185,24,28,75,63,4
5.574189563236245e-05,0.00015187068010414774,0.004839201922495279,0.01925304831348626,24,24,75,61,4
5.582502483064333e-05,0.0001433887083459974,0.004785878506165695,0.018259289640437597,32,26,75,62,4
5.7939854278237765e-05,0.00013306964205577124,0.00488018743032066,0.01771026345787679,26,18,81,59,4
5.722997407058982e-05,0.00021273125032880022,0.004952038085979425,0.021880876130061302,34,12,77,54,4
