f1ch1,f1ch2,f2ch1,f2ch2,f3ch1,f3ch2,f4ch1,f4ch2,Category
0.00015693495281554192,0.0005019324000433895,0.018302300044207298,0.04397777735354792,30,16,60,51,0
0.000232251706071494,0.0009966000799926167,0.02843269088908065,0.08505449253108677,20,18,73,45,0
0.0004439460098276564,0.0014701744207384143,0.04473946831332627,0.1366755484544619,16,16,66,53,0
0.0005973940362215508,0.0018314716334965212,0.06489840663639633,0.164546726885722,26,16,69,54,0
0.0006578340484785103,0.002147189096293544,0.07771444285424568,0.2078824789506356,28,22,71,58,0
0.0007871755969739251,0.002608550645468694,0.09085296177800853,0.2423390913531534,26,16,66,52,0
0.0007431272004074686,0.0025646370524909294,0.0910574016397469,0.24675083504112916,24,20,68,53,0
0.0006774025544170011,0.002693587391357124,0.085544319027236,0.2627228059760032,22,22,69,48,0
0.0006974830279691106,0.002423930095232113,0.08166636292647657,0.25727806073437887,22,24,65,54,0
0.0005591166395638751,0.002488343417794621,0.06852764963396203,0.2538542607440214,30,22,69,54,0
0.0005559772555351272,0.002163310466326896,0.06815107164846448,0.25774783844463595,26,26,73,60,0
0.0005208323136330785,0.0020058732392571887,0.06306932495528468,0.24837883116442347,20,30,72,63,0
0.0005196259848037992,0.0018131058532217558,0.07146790654462276,0.22942743090931,30,28,75,68,0
0.0005814654665848146,0.001775348995171892,0.07402730108930074,0.21446244917111962,24,28,65,73,0
0.0005377906109644589,0.0017472722917265954,0.07618255610178055,0.1945226453273663,36,28,70,67,0
0.0005531081863054568,0.001576450367352885,0.08217396753389343,0.19703588422347296,36,26,74,65,0
0.000532546757064133,0.001570716851912496,0.07864476507757091,0.20702212526698496,38,28,76,62,0
0.0005484711498599039,0.0015396320252530757,0.08018414292788009,0.20022015325925888,36,26,80,57,0
0.0005101128042124297,0.00143082570447499,0.07724567433658501,0.19714873032051392,30,34,74,61,0
0.0005834298685172365,0.0014561765398834828,0.08250002826437995,0.1967500598814598,30,32,69,59,0
0.0006019329277603594,0.0015449105779873529,0.07850361338765008,0.20493220738073212,22,30,68,61,0
0.00059033087884249,0.0013774824566529392,0.08000013397523911,0.18507092434804817,24,32,63,64,0
0.0006309093513572171,0.0013993295488790019,0.08473151866921609,0.18221294070445643,20,28,65,67,0
0.0005616865230098045,0.0013341187667370328,0.07816700000833962,0.1659796026046346,30,26,63,64,0
0.0005226987581857232,0.0012820746099694883,0.08079922674718099,0.1587259635906583,32,26,64,65,0
0.000502530005253811,0.0013657304881684552,0.0724173375623135,0.16733678982558103,28,26,71,67,0
0.00039521689731651064,0.0014504996671174893,0.06437584908234083,0.17866415339962835,28,28,74,65,0
0.0003857322183495964,0.0014519301262529655,0.058414643296927186,0.17798134623531853,28,28,74,66,0
0.000391780093497292,0.0012859979694149182,0.05358765112528505,0.15989709539694086,28,28,67,68,0
0.0003722768121947146,0.001387578373630422,0.055637436842162324,0.1688485378824704,28,24,71,66,0
0.000390819786592108,0.001386171675868724,0.0562040221813456,0.1628146629026219,26,24,71,64,0
0.0004241299856140237,0.0013949038864573815,0.05823482883617478,0.15946319363586778,26,27,79,68,0
0.0004420632773850699,0.0015423001174649684,0.060398888883370014,0.18287673455626186,26,30,91,64,0
0.0003929430781581005,0.0014443040717843113,0.059556182647240226,0.18494984855629792,32,30,90,63,0
0.000381038078162642,0.0014488732257465894,0.058401782572038326,0.17785035890986384,34,26,90,62,0
0.00039512184675646655,0.0013712748428268914,0.05618961295799045,0.1773311264027276,30,26,89,64,0
0.0003759236493154055,0.0014853199814112593,0.05219465665463008,0.18396206021673042,34,24,83,59,0
0.0004494618578878439,0.001383740935150841,0.057799683392443325,0.16189880336239565,30,24,72,61,0
0.0004954844863270653,0.0014381028670914298,0.06606235925307445,0.16957581708777786,32,22,73,60,0
0.0005721846944435272,0.0014319260006830264,0.06883720494703395,0.16511832895536138,26,22,58,62,0
0.000540108567100025,0.0013090917800641939,0.06734608411675724,0.15154074202063786,26,28,59,60,0
0.0005623489068460364,0.001362406847277104,0.06810762013114856,0.15805920023564224,28,28,60,58,0
0.0005684174394713749,0.0016277127163578774,0.06228019563931422,0.15938339622672412,26,20,57,49,0
0.00048252013760908803,0.0019008110995087817,0.05952651118924025,0.17846979278147293,28,16,62,57,0
0.0005873365913337168,0.0020071365463050043,0.0706819745416749,0.1842648046766526,26,18,65,53,0
0.0005706575519114389,0.0020800117589374082,0.07151613845498717,0.20133327225799086,26,16,61,60,0
0.0005598275551837403,0.0017436128877482773,0.0773703467713487,0.19817875204505545,24,22,64,63,0
0.0005649537823385986,0.0016763274840742182,0.07606628284787434,0.19466700038452847,26,20,75,71,0
0.0003633747895556138,0.0006613806456013269,0.038470150702126636,0.0790052007855032,12,24,62,60,1
0.00086338087266168,0.0008576872867632321,0.0870990160511207,0.10023693220159353,14,28,55,58,1
0.0012903587115719,0.0010309074186108,0.14913753764780974,0.12247519010539765,22,24,53,59,1
0.001518998579704849,0.001131912345045201,0.1938826419783069,0.1371842139537727,26,26,58,60,1
0.0016023459144210144,0.0011229829462882516,0.20880885000170862,0.14458772434828635,32,20,60,61,1
0.001470125723364391,0.0009462535871248875,0.18228501716696827,0.13285543657527102,26,24,60,70,1
0.0011747086570390098,0.0009715812773134397,0.1409517196008467,0.13763009745365612,24,24,64,72,1
0.0009608410762622369,0.0009443906903473065,0.10950231508913529,0.13607504426863495,20,26,65,72,1
0.0007610569550305404,0.001037754046087475,0.0864711632501892,0.1362199187368024,24,22,65,75,1
0.0008722766628696097,0.0010491355355607688,0.09777238719686307,0.14122483931194696,16,24,65,65,1
0.000877789714306485,0.0009331216127522854,0.1038705803674337,0.13186928286867888,22,28,67,70,1
0.0011782230342551353,0.0010373765475869736,0.14928130899101988,0.141780604892385,20,22,63,70,1
0.0014874786726860006,0.00103305080774593,0.18320917225645603,0.14110720915627456,26,24,65,67,1
0.0013109875172906827,0.001011993483365798,0.1646618475298162,0.13764582447121404,22,26,65,67,1
0.0012175328005184618,0.0008899403406675629,0.15318539952081142,0.11891442511619836,22,24,62,64,1
0.001063928175102833,0.0007649486457150856,0.11720546481303835,0.10356478138977683,20,24,55,66,1
0.000664427961476277,0.0007438412930694105,0.07385037317263138,0.09631425246852185,18,22,63,74,1
0.0007556586219926285,0.000777527770913183,0.07876686658044005,0.100046073638508,26,32,58,77,1
0.0007543846203124434,0.0009234273790328541,0.0758811915687902,0.10895435332586466,18,38,61,71,1
0.0006098895797755421,0.0008157262222561006,0.06673849095708767,0.10647014380360748,20,34,70,76,1
0.0006356721993474353,0.000976770123832803,0.07075820598199661,0.11757854605795927,24,30,71,70,1
0.0006308156610668595,0.0008231542541651479,0.07684014294643489,0.10418456682438788,26,24,71,71,1
0.0005795877811274451,0.0009489797585821824,0.07724413413372058,0.1153678985778451,30,24,68,71,1
0.0006240832477250551,0.0009877521940490517,0.08258806081540054,0.119538142335661,30,22,68,69,1
0.0006171868734888092,0.0008766228076778244,0.08154580227758487,0.11095606167479373,24,22,67,74,1
0.0006053441106355117,0.000995153082566456,0.07851483244052058,0.1232741021177885,30,22,66,65,1
0.0006817496819038084,0.0009385480436008598,0.08850320877474534,0.11361345731322409,28,34,61,67,1
0.0007338185698148666,0.0009121585145248265,0.09649170200806251,0.11144720500601071,30,28,66,71,1
0.0007724812923659315,0.000978277195434647,0.09709461635477662,0.12117397544413584,26,24,60,71,1
0.0008551080511939638,0.0009318201424699537,0.11111869997445685,0.12033757204261257,26,24,60,79,1
0.0008578708272984664,0.0008344918420110976,0.10506654024889685,0.11045094857896412,28,22,66,69,1
0.000712488428274605,0.0008436280398418709,0.09266326737653843,0.12174311737919542,26,30,69,67,1
0.0007915144756488793,0.0008227072258337419,0.10003466321123675,0.11342497507563944,26,34,68,67,1
0.0007203651481841135,0.0009131936974733774,0.0931055964517878,0.11907397232351595,26,30,65,70,1
0.0008778142397330757,0.0009039910031841533,0.11243966528321549,0.11998187018209477,24,30,65,76,1
0.0009534545161411619,0.0009066774488102788,0.1257586144848645,0.11311440769121105,28,24,61,70,1
0.0009501060296694039,0.0009895600516111516,0.12019945704644319,0.13105169926484234,24,24,63,72,1
0.0009760504665589538,0.0009569232605687834,0.1182746327831611,0.13021598200383772,20,26,62,69,1
0.0007932723001277776,0.0009593748311705546,0.09594747741053568,0.13137933029667656,26,30,64,72,1
0.000933542028663331,0.0009010284880194056,0.0840467127256781,0.12256399566553854,18,32,62,66,1
0.0007704163399677618,0.0007666362577258494,0.0707574429607415,0.10043932931540595,18,34,64,66,1
0.0010455285455947712,0.0006956485309810119,0.0825003744161366,0.08848919586434854,12,30,50,66,1
0.0011138205017439597,0.0008842646438114456,0.1305312777625245,0.10402788158132278,17,22,45,58,1
0.0014973883895120473,0.0009403444967039519,0.16921895626031058,0.1143735979752171,18,22,52,59,1
0.0015732371304178938,0.0008924279279954961,0.18369078165953134,0.10708539032721298,22,18,49,61,1
0.0015420158176563006,0.000880919825078899,0.1713802542205435,0.10269880997797957,18,18,54,70,1
0.0009395162878642815,0.000571606067485103,0.10973469724897404,0.08327787489990296,24,24,57,77,1
0.0008084314688748769,0.0006886162708455374,0.09215030530291535,0.09843420529216552,30,26,61,73,1
3.0682503681854656e-05,0.00010596164384166006,0.00345190054665332,0.013684980359283111,24,20,88,59,2
2.7415395762198594e-05,0.00012464956379614666,0.0032846412665732995,0.015854283367077063,24,18,90,63,2
3.0001158311735174e-05,0.00012678285962261526,0.0038213373792366293,0.013824457409630158,26,20,92,64,2
4.93621973195494e-05,0.0001343328554334837,0.00603808024292229,0.014820344699439941,16,18,84,67,2
0.0001218153570485945,0.00010865775457340825,0.015622748780799294,0.011888845545494362,16,16,68,73,2
0.0002006181909266235,0.0001079397644428732,0.025233165995154645,0.011404050385736407,22,18,67,70,2
0.00025641207898516945,0.00012097956177566606,0.034015662787524915,0.013836896240577554,26,22,61,75,2
0.00036727493819941476,0.0003322353370138953,0.049995226563764886,0.031212678942473687,30,10,65,62,2
0.00046351282112088045,0.0004117760801501946,0.06115058548417511,0.04366203848206241,28,12,69,69,2
0.0005859264662198716,0.0006044165815917581,0.0723644671764685,0.0658839306285464,26,16,67,54,2
0.0007383457346641617,0.0008172338312439914,0.09390773078315141,0.07938813696534983,26,14,71,59,2
0.0008754724302055198,0.0010720854798119304,0.10980504188485153,0.09736834864135063,20,8,72,58,2
0.0008298500564467666,0.001602465854361724,0.11683741129378786,0.12164921446937764,30,12,73,58,2
0.0009111483247970324,0.0015341205132279026,0.11989051042346699,0.12091178887769154,28,12,72,55,2
0.0008313617648253589,0.0015375727341698769,0.11890564810613269,0.12297266392713659,34,12,70,51,2
0.0007553556013355705,0.0010617616809955135,0.11361561645759881,0.10442447532017295,36,18,70,59,2
0.0008164747730223867,0.0008759227334381789,0.12182688261890995,0.09133967655227103,38,24,70,63,2
0.0008798300020870961,0.000795758816826369,0.13712949062048765,0.08906129308026085,40,22,74,60,2
0.0008290655805970094,0.0008065797236232426,0.13635498435748875,0.08619955134353142,42,24,77,64,2
0.0007392556218389846,0.0006925627486666438,0.13317110890311643,0.07888602487348763,44,20,85,70,2
0.0007542011773806295,0.0005587213520498499,0.13838428415045967,0.07245452089970152,38,24,85,80,2
0.0007242046954394394,0.0005167100198012853,0.13328855984317214,0.06733694901204956,42,28,87,81,2
0.0007398145134764754,0.0005143905156992929,0.1350463124514586,0.06336158580814542,36,24,88,82,2
0.0008044538347606889,0.0006154735761950758,0.13469949403412693,0.0674811191028375,38,24,89,71,2
0.0007332985943190441,0.0005960714171798888,0.11916398036512926,0.06494349684446665,38,20,80,73,2
0.0006935831066814087,0.0006087046195447099,0.1145448677736544,0.07072131849956366,40,24,80,72,2
0.0006083538573635987,0.0006155880284903041,0.10671838193099485,0.06902792657677967,46,22,76,77,2
0.0006595483011827097,0.0005823716547759712,0.11437527424584909,0.06940557401725449,42,18,71,70,2
0.0007070904269708088,0.0005753001793016018,0.11903673773765691,0.06980988786345783,36,22,77,65,2
0.0006939216784540053,0.0005187587547922832,0.12457009980697502,0.06452136350780655,38,24,79,65,2
0.0007402938347392812,0.0005322108352428272,0.12556627149300054,0.06716310423613321,38,22,76,65,2
0.0006893116134906749,0.00041150125953576597,0.12016885131068819,0.06197853536980746,38,34,84,70,2
0.0007291413159119016,0.00045520122722494147,0.12250193716494955,0.06288460207193416,38,28,76,74,2
0.0007171255013214817,0.0004913418492345213,0.11705946124090294,0.0639632300503747,38,28,80,74,2
0.0007910708276757057,0.0004661438589979689,0.11977730446498144,0.06346854447891875,34,28,83,78,2
0.0007412575767549405,0.0005269915464238063,0.11947715160827146,0.0674615271579515,34,30,87,74,2
0.0007693543607732038,0.0005809005398025869,0.12209107979165056,0.0661521388550437,34,30,86,72,2
0.0007767932511157021,0.0006875923276210409,0.12312044011221199,0.06850140108195012,36,20,85,73,2
0.0007401078739432187,0.0007330757248311377,0.12225740492112648,0.0688312301673266,34,16,82,64,2
0.0006387247092937828,0.0006865838771804939,0.1009692572955119,0.06144731319262909,38,20,72,62,2
0.0005902261177367512,0.0005651095727744259,0.08560543704313604,0.04763024671883996,34,16,60,68,2
0.000651124233298,0.00034559133678068344,0.08632444275469765,0.031132533198794433,28,18,59,74,2
0.0007411917735687712,0.00016549986697082317,0.0971156611393034,0.02497846916963105,18,28,61,83,2
0.0014597341662274882,0.00019423868075596772,0.16652526239775675,0.029021221991404448,18,24,59,78,2
0.002214352304014319,0.0003554111050874898,0.2942671633448938,0.0482342655074997,18,18,63,70,2
0.002678949343897471,0.0004225302519006978,0.3762027484117501,0.05912045435186487,22,16,60,74,2
0.003016341921052149,0.0004555137092520514,0.4629471942069351,0.06517944557935469,32,22,61,74,2
0.0031018535215012826,0.0004409144267145638,0.49267149506235297,0.06461418358692264,36,26,63,77,2
0.00011834575745342369,0.0012184463708828904,0.011099799312269553,0.12630584397707253,18,18,71,51,3
0.00019060177851239869,0.0019234519729896926,0.018373510822793444,0.2055357361790184,14,18,68,50,3
0.0002797548457909045,0.0030398744627817987,0.028892040184929232,0.3260213160948888,22,20,53,52,3
0.0003077237058771602,0.0034960333180525725,0.03525372779050312,0.4071542404366666,24,26,56,56,3
0.0003379654791192634,0.003549233115222038,0.04157474728387104,0.4350640880707415,24,30,54,54,3
0.00034896686523685377,0.0038255005235733226,0.042114300413712974,0.4640883740511829,22,28,61,63,3
0.00036433425214358055,0.003536398038337865,0.04000956099549518,0.4436433413136261,18,28,59,57,3
0.0004059606935364063,0.0030550468476506693,0.041006450726898916,0.43083676482831806,22,26,53,60,3
0.0003738441022134108,0.0030182763527219964,0.03944395176235921,0.43028962235516605,20,28,56,63,3
0.00040728689045260594,0.003100034067382663,0.04320000887522414,0.40090944535546225,22,24,60,65,3
0.0004044816984506651,0.002675290856861696,0.04640154348900703,0.38788898001378214,26,32,67,71,3
0.0003818055650797956,0.002561775966360496,0.04554428114716881,0.40047768282350216,24,34,75,72,3
0.00044102744645999704,0.002823733507914356,0.05054581379033193,0.4259263394128726,20,32,71,72,3
0.00039034565585840237,0.0025934448378321182,0.04963792734903509,0.4107231264215999,24,34,69,72,3
0.00040338144260691224,0.0026959091182073903,0.04701241517508327,0.4146518167239151,22,38,76,74,3
0.00044090717078746006,0.002594972726690231,0.050751389396982136,0.41459377798972324,26,36,73,80,3
0.00043975343353291695,0.0026922084586968003,0.045672008047543886,0.4061250238358755,24,34,75,75,3
0.0004222162421932132,0.002724122765380861,0.047629679179193446,0.4419020602897698,27,34,69,69,3
0.0004697801774323116,0.0032079605664908323,0.05179432484703218,0.45858334496060577,24,30,68,70,3
0.0004652839635986356,0.0029561361889750316,0.0500735632867206,0.4497878033627511,22,30,65,68,3
0.0005325512611432133,0.002905426683776474,0.05121361871412344,0.4142855300013801,20,26,56,77,3
0.0004314004201719882,0.0029926097655318734,0.049496660142663546,0.4154632486642822,20,30,63,72,3
0.00042539006520742875,0.0028578346353929276,0.04468449915798908,0.364359222611229,20,28,63,70,3
0.0004305557097844833,0.002635376898430067,0.044640141505064804,0.3678619531009329,20,26,61,67,3
0.0004049092882856813,0.002311590352035745,0.041752047847516224,0.33561216406813066,20,28,66,72,3
0.0003733803168871952,0.0020488854041658686,0.04073022233588302,0.30701797410287435,14,24,70,77,3
0.00041405468106134715,0.0021041690400234007,0.04594130290197278,0.3085542377634932,20,26,70,74,3
0.0003278834920599219,0.002138565205878522,0.0430554433879728,0.3063988348798336,22,22,73,73,3
0.00036394554290480793,0.0022431023745248606,0.04708624130531345,0.3394677227323377,24,28,73,73,3
0.00033434498547476807,0.0023232535543084385,0.04544209984260623,0.34362764844542437,24,32,74,74,3
0.0003392862479462109,0.0024896855931228266,0.04709302295691812,0.3733314855928197,22,36,73,78,3
0.00038135296580037463,0.002676696527497264,0.05027176499542961,0.3974264828911724,20,32,72,75,3
0.00036568651148143234,0.0026473740384772397,0.04951691920947575,0.3993817698411022,22,30,71,77,3
0.00039482537665153794,0.002729463608366376,0.050480151794680024,0.43347717838924293,20,34,71,74,3
0.0003873713255151429,0.002666787157185774,0.04671620325295744,0.4260257871343759,20,32,67,71,3
0.00040263040584417257,0.0025769282678333397,0.041924709482810484,0.4131092349596218,24,34,74,69,3
0.0004043133546571111,0.003019406638340779,0.04353469517355405,0.4332139510268344,18,26,70,70,3
0.00038234932938439566,0.0028048725427368337,0.04196336116512851,0.4090783776746871,20,26,66,67,3
0.0003821594382381821,0.002782211896749669,0.040966914305594015,0.41337320234897057,16,26,66,71,3
0.00045205972353447625,0.0025452231052409844,0.0456601700447757,0.36175847566470837,12,24,70,67,3
0.0004418100272851236,0.002408088073280619,0.040158997545805784,0.3231989562369629,10,22,64,59,3
0.00048247934867775855,0.002975869345331139,0.04449584781538176,0.3425643820607899,14,22,61,55,3
0.00035227793604842054,0.0030184105209847623,0.03597130417926861,0.37057141725193166,18,22,52,55,3
0.0003955621209576309,0.0033245555246357128,0.04114716210551051,0.4085699535361007,22,28,55,54,3
0.00041492771294089273,0.0030701230480107687,0.040859530079024875,0.4011470041137413,22,32,52,66,3
0.00036134299700132477,0.0027373987818361976,0.034093189666234716,0.36302722683497995,20,24,56,68,3
0.00031964364500910184,0.0021994106450308774,0.03238640493882809,0.3090118896707066,18,30,66,73,3
0.0002675455432464751,0.0018171501518390123,0.02710659615071062,0.25690793119731675,24,26,67,72,3
2.6272146222678454e-05,0.00020134601240603275,0.004794605639377903,0.021905065298592232,34,18,89,66,4
2.7592667067506792e-05,0.00015686272373367365,0.0046676689023532345,0.01715001979022562,40,20,89,68,4
2.7958954013577903e-05,0.00013514409764996558,0.00453145917377344,0.015847854067767505,36,16,96,76,4
2.948693444400326e-05,0.0001216541616443257,0.0043076832685116,0.014003624860368158,30,14,93,74,4
2.684715679907172e-05,0.00010247034359788533,0.0035556662910777017,0.01238306959934882,28,10,91,73,4
2.505447831463772e-05,8.144125806137364e-05,0.0034508151308737583,0.009937895011593489,26,18,92,74,4
2.7164274117796973e-05,6.367321799722881e-05,0.0033703588905253305,0.008272862298161002,20,14,90,76,4
2.4790569218025045e-05,5.848187912504501e-05,0.003314404208001031,0.0068222424348307695,24,10,95,82,4
2.7128936725695703e-05,5.7198473335017384e-05,0.0033736855390000095,0.0063072138727895116,24,10,97,82,4
2.6102000034143917e-05,4.4448059200764766e-05,0.003403087675153008,0.005673662771388031,22,18,89,87,4
2.3526378199807695e-05,5.6657481353153086e-05,0.0031980653286136917,0.0069246782365145875,26,12,90,81,4
2.7021229336849066e-05,5.4592591191170205e-05,0.003117638812406349,0.006814438779062353,22,12,89,82,4
2.0830518797403226e-05,5.0355890142809114e-05,0.002916014918056877,0.006028926171221335,32,10,91,84,4
1.9837137783253397e-05,5.5896156105676435e-05,0.002880455605571269,0.006422902493995881,34,8,99,88,4
2.3071444651515054e-05,4.3962847096359736e-05,0.002922857050093405,0.005225018578676444,24,12,107,91,4
2.0873974377725e-05,4.783318766768975e-05,0.002998268547635935,0.0055627288449751735,32,12,111,84,4
2.4078745735761878e-05,3.892980268262015e-05,0.0031824934937568767,0.004693470691232004,30,20,108,82,4
2.4314199158175165e-05,2.873940880340986e-05,0.0030467430934944927,0.0040721767111113645,26,28,97,79,4
2.282243711878372e-05,2.730396194454472e-05,0.002987151548503888,0.0038525208758545424,30,22,92,90,4
2.3562805942584967e-05,3.109642689900548e-05,0.0029270878449427985,0.003804522437385566,26,22,91,76,4
2.769724652394223e-05,2.8512671983508745e-05,0.0030378914874704534,0.0036917671629526153,30,32,91,83,4
2.8122556923430488e-05,2.908386922197481e-05,0.003123262864386772,0.0035411216418375787,32,22,87,90,4
2.8038156874972232e-05,2.577522626135347e-05,0.0033238674831219763,0.0035938427731593385,30,28,98,93,4
2.660109611180984e-05,1.913237833280493e-05,0.0033289934319723547,0.003319242987463717,32,38,101,104,4
2.3418512356394492e-05,1.9967931142186603e-05,0.0031438516137558604,0.0032056147597545456,32,30,97,102,4
2.0531083974967974e-05,2.0710750286148392e-05,0.003082188599411923,0.0034222260713949217,40,34,101,96,4
1.986529794975309e-05,2.1338712697727838e-05,0.002908829898406295,0.0032252752527137185,36,26,96,98,4
0.00043266987218110674,0.00017915746671089364,0.025149609797828727,0.017264908090455108,4,10,70,58,4
0.0024402501741288586,0.0002990904395985498,0.13847684287500608,0.025588221088960555,7,14,52,56,4
0.002595481620644521,0.00035030692031276587,0.14202972965956412,0.03544884930881594,6,18,54,45,4
0.0023376747086534767,0.0004053211291744099,0.12729139901253994,0.0448935865167413,4,12,60,50,4
0.002182865707359528,0.00039384690677517757,0.12084147816510371,0.03966510189878731,4,14,53,58,4
5.97236097715677e-05,0.0003555066284375844,0.006999803274586799,0.04152567490743982,14,18,82,62,4
4.060357640636044e-05,0.00032195641418911994,0.005392548019094161,0.03130608922286983,24,12,86,58,4
3.364996837368103e-05,0.00023374792435163158,0.004129863126007955,0.02489748832768867,30,10,95,56,4
2.944899989823877e-05,0.00019390889763405746,0.003447807880794875,0.022608780660617767,28,12,90,56,4
2.724459354913745e-05,0.00014853639323016794,0.00333000221536369,0.016038262312841868,26,12,89,54,4
2.9931621675082864e-05,0.00020285588259532633,0.003422364590935303,0.020498261963170963,30,16,98,51,4
2.873755121281303e-05,0.00017582382484253537,0.003378104918907682,0.018061061539781025,20,12,96,59,4
2.4663450885473483e-05,0.00019446706172071551,0.003375742880094582,0.018597198720622012,26,12,106,56,4
2.4034237971805067e-05,0.00017004379353003344,0.003380590843548502,0.01819986709436272,24,18,105,59,4
1.9754960544806246e-05,0.0001495802514732116,0.003367401965570696,0.017541038299693952,34,20,101,63,4
1.9146671958423057e-05,0.0001615019397535518,0.003384828031313991,0.018788614154568787,38,16,103,65,4
2.094411437981279e-05,0.00014621343213534903,0.0032649938699521007,0.01573380709178061,34,14,104,69,4
2.1087548141473485e-05,0.0001552007625585595,0.0031381171427204467,0.017244031649041047,34,12,101,68,4
1.9949372510450432e-05,0.00015448896203905962,0.0030882097879883948,0.015627776771088238,38,12,97,64,4
2.14789753556274e-05,0.00013057289694401567,0.003067759767013196,0.01493380300155305,32,12,98,61,4
2.3543632662166953e-05,0.00014926325347437117,0.0034102131386952324,0.0168412268395648,34,18,100,60,4
0.0003591710902039543,0.0010747938827658859,0.049952900977141744,0.15041501690911577,22,22,65,67,0
0.0003903097735553306,0.001239706390627099,0.05403644807973823,0.15887390796139647,18,26,74,63,0
0.00035394099934539557,0.0013024544427016047,0.04802013736910819,0.15877180316919556,26,24,73,63,0
0.0003478120982092183,0.001198413885016909,0.05144834711695491,0.15455810329288833,34,30,78,66,0
0.0004038869477811226,0.0011968885075174386,0.05804506939046923,0.14717570101848504,26,20,75,66,0
0.00038508306298902896,0.0011003986243643556,0.05722789493251143,0.13896547572291423,30,22,71,60,0
0.00041157054795970446,0.0011279450840038314,0.061442208853795616,0.14030428278605725,28,22,72,60,0
0.0003838702569190158,0.0012421883021205295,0.05743056593426101,0.14728722518208984,30,24,69,57,0
0.000387005404879852,0.0013072994393390363,0.055651486833338266,0.14837938593045769,24,24,69,59,0
0.00044109516361391275,0.0014796031458587408,0.05593593770970683,0.1609484730541066,30,20,65,56,0
0.0004654386682151366,0.0015169860792233606,0.06025252860162064,0.1527661169664208,28,18,69,57,0
0.0005808206036484419,0.0015963587257649522,0.06745519224917498,0.16130269946676995,26,20,64,52,0
0.0004838837978383308,0.0015816438207087774,0.06344615001445103,0.1566933844854501,28,20,72,57,0
0.00046845421156049784,0.0014960909700840862,0.06665151297546067,0.16079180190989753,32,18,72,62,0
0.00052462756533162,0.0014531323323840309,0.07273996460087037,0.16656989508648024,28,24,66,66,0
0.000490515726595205,0.0012088596529169096,0.0723368167634102,0.15936861559554474,28,24,73,73,0
0.0005033663248075125,0.0013692946927716667,0.07315393856167313,0.17667182687557414,28,24,70,69,0
0.0005358370517722524,0.0011610260870814713,0.07382973144179213,0.16227771788075487,30,26,72,76,0
0.0005377160288156176,0.0011841819095388733,0.07193594555294369,0.16552985884304927,28,22,75,74,0
0.0005565679695231595,0.00140379447146349,0.07144787982507547,0.17264980712644748,28,28,73,66,0
0.0005593518118347442,0.0012351744285869159,0.07605782606547169,0.1762113452357738,26,32,74,68,0
0.0005499671956004019,0.0013940088629023932,0.07364533419580081,0.190085960442195,30,34,73,63,0
0.0005174564597683444,0.001344477146204102,0.07292987416644914,0.1873114271166066,34,32,69,60,0
0.0005111417351372521,0.0014201584323283952,0.07313549580612586,0.19830498385058018,38,32,69,63,0
0.000621426486875398,0.0013419170210359646,0.08861504570276642,0.18099563022773424,30,30,64,64,0
0.0007051690890298325,0.0014332548443432166,0.0930775298662962,0.18732451255344554,26,26,64,62,0
0.0006907770987417395,0.0013887793883185543,0.09427452349585709,0.1907222868954737,28,24,69,66,0
0.000694810079910677,0.00137835038487815,0.09687208669547759,0.18231251732592435,26,28,67,63,0
0.0005441492507586828,0.0015221868955404055,0.07694137527685836,0.19581328613400958,26,24,74,62,0
0.0006067181282707432,0.0017983331468038107,0.08179756960579304,0.21026478085819209,26,24,76,59,0
0.0005557447105195967,0.0021450717056622774,0.07774822723590692,0.22162189235118887,28,22,71,53,0
0.0005512553858491021,0.0021624900646329136,0.08031003793021858,0.22320444950601,26,24,72,60,0
0.0006033628854686754,0.0022995315479798625,0.08950315548559522,0.23662110272821918,32,26,66,59,0
0.0006695240109028984,0.001994192833555146,0.09252018499317062,0.21492019236563256,28,26,60,57,0
0.0006949573681569296,0.0017340616444222567,0.09073572417586244,0.20221959187080593,32,30,66,65,0
0.0006189099233811613,0.0018279058672977938,0.08309989274380815,0.19830258553035013,30,24,63,60,0
0.0006493691967110784,0.0017679567302310998,0.07843179745687463,0.18939170909460948,30,24,63,56,0
0.0006235038554257603,0.0017679179081342858,0.07304188793143955,0.20121923734676342,26,26,65,56,0
0.0005794095018576759,0.001953533519330419,0.07125260453202369,0.20019801058298084,26,16,69,51,0
0.00056542025744688,0.0018727013991472557,0.0743960697514983,0.20106604285576882,28,16,72,49,0
0.0005403883162355932,0.0017021749285204355,0.07341203788658035,0.1765519160435115,24,20,69,54,0
0.0006032867468863755,0.0014543878612617326,0.08037443113884549,0.16194597099471433,24,28,64,62,0
0.0005518408343822647,0.0014465830502296386,0.08048384795408446,0.1741506999368555,26,28,67,68,0
0.0005848289297293428,0.0015353026739099774,0.0851102271003036,0.17687600149041213,24,22,68,64,0
0.0005667682375489603,0.001488717071182132,0.08240240756045139,0.17757691412750914,26,24,71,69,0
0.0005007454358951181,0.0014609349286739586,0.0738251639351491,0.17613946563651972,28,22,72,59,0
0.0004904801850349512,0.0013598402803308624,0.07061432940251565,0.16453989817741552,32,18,72,59,0
0.0005049853452813304,0.0013556786443209051,0.0674009645070814,0.162039719566229,28,20,66,62,0
0.0004979584035022664,0.0013514094059770907,0.0687764828158833,0.17763831763354557,28,24,63,62,0
0.0004875720922748342,0.0005884546398432025,0.06888101966748553,0.08082837475429637,34,26,65,75,1
0.0004871580859257474,0.0006000495683104868,0.0672479358983203,0.08281399107746786,30,28,68,75,1
0.000591910444782638,0.0005597024827488938,0.07584027923514373,0.07755499646124557,20,22,69,76,1
0.000523135696914456,0.0005149343944011354,0.06995915958013782,0.06801272225493542,24,26,71,73,1
0.0005074319908844514,0.0004987098872237848,0.06805927924985938,0.06647336266308526,26,28,69,66,1
0.0005000873010038393,0.0005038830548527942,0.06624075534787255,0.06429512727408536,22,22,73,69,1
0.0003600293290010284,0.00042469432023408234,0.05456144715424483,0.05798849784156972,28,18,75,76,1
0.0003476688614555087,0.0005116079287739685,0.05090854992925156,0.06544113867119679,26,20,76,71,1
0.00035197745417155655,0.0006707005225067226,0.04695553556653844,0.07256158514889273,24,18,75,69,1
0.001248656458633947,0.0006509274565103044,0.09353983588220308,0.08411132157164057,10,18,67,69,1
0.0014471646620226328,0.0008088142493343113,0.11803135592038393,0.10209343551401413,10,20,64,66,1
0.0014614706786453932,0.0007627099812445121,0.1350107601146657,0.1014278864207321,14,18,60,64,1
0.001053714197359185,0.0008281657955540395,0.1320640743199937,0.1114126310467722,32,24,56,63,1
0.001028132413967894,0.0007635732890187676,0.12518620749774,0.10678761698077599,30,20,57,64,1
0.0008663799626921089,0.0006780419492222978,0.10485360995723468,0.09230415318842025,22,24,60,72,1
0.0008457340303484209,0.000567928890427026,0.09325878746741588,0.08391880712719825,20,28,58,73,1
0.0006877239549181974,0.0005494179516881464,0.07863473146284752,0.07523937434466577,16,28,65,75,1
0.0006139938428064466,0.0006274518580444103,0.07492303794938991,0.0888572455757717,24,28,71,71,1
0.0006466955715372568,0.0006271272026944926,0.08421714736634912,0.08694978617249095,24,32,66,74,1
0.0006292735596477525,0.0006620077292248082,0.0873342744822334,0.09582527619907111,34,28,70,73,1
0.0005843392311150699,0.0006351794972546705,0.07976218099700264,0.09502131591575474,32,28,68,72,1
0.00058869299981253,0.0005124248233700523,0.07708940636623729,0.07220733729348823,30,30,62,78,1
0.0005943052419099307,0.0005857267320201068,0.07414528148325787,0.08402221845064906,28,30,62,80,1
0.0006268356318194769,0.0006356970178816024,0.07264526889088548,0.0837129461315464,32,34,61,71,1
0.0006401861000750515,0.0006565988776664313,0.07951418801423478,0.09089516482214613,32,30,66,70,1
0.0006144476701803722,0.000757880969540432,0.07713551565212541,0.09258011484824635,34,30,69,70,1
0.000634185854449977,0.0007742969624963104,0.07671467263317135,0.09472361390654212,34,24,68,66,1
0.0005459393585701568,0.0007813914766743524,0.07014550578723751,0.10098394619980865,36,28,67,78,1
0.0005414778618313875,0.0008210708133774663,0.07016732967524937,0.09380480336419443,34,30,67,73,1
0.0006022719124347349,0.0009030494677768982,0.07377053804111615,0.1073929938085051,26,22,68,71,1
0.0005455596415938211,0.0007748488961493378,0.07360785725143357,0.09638376911539788,34,34,71,71,1
0.0006284633356630498,0.0007705074548743709,0.08374967191427828,0.09154110966922072,28,24,63,70,1
0.0005801169458980724,0.0008305789161981383,0.07360771207364511,0.09666675474701278,26,26,58,63,1
0.0005423001055438169,0.0007018070698520392,0.06589594212095017,0.08375543313455447,24,26,64,67,1
0.0005369445817745021,0.0008579919670075629,0.0673944110640329,0.10508053009287634,26,28,57,62,1
0.0005013120952620328,0.0008470163094207291,0.06421051701365874,0.1070139955700937,24,26,70,63,1
0.0005902428081609425,0.0008355351080698183,0.07106689735545851,0.10609947555591405,28,26,67,66,1
0.000585162848073297,0.0008251725329521505,0.06732228430635727,0.10734363462181684,22,26,63,62,1
0.000543260239597056,0.000757800421580104,0.06367249104054523,0.09723830245046235,26,22,66,66,1
0.0004913285264163905,0.0007201946268628367,0.053806043906652244,0.0947397600904376,26,26,60,66,1
0.0004598863050918519,0.0006670561595335379,0.05265629891924871,0.08858005068253118,24,24,67,66,1
0.0004273944954327311,0.0007310020114053061,0.04815250276130472,0.09331629654321012,26,26,66,63,1
0.0003863667762727446,0.0006196461666674954,0.04717987784806315,0.08560669115112945,28,26,66,67,1
0.00038842276749114646,0.0005800923719935909,0.04787311859771322,0.08156227022885588,24,30,69,69,1
0.00036491892012710113,0.0006151322047282816,0.04567657715405418,0.08687495463260121,26,32,70,69,1
0.00041399294141492775,0.0006585145938165539,0.05001812089845747,0.08995207424139663,26,32,71,70,1
0.00040810541114676764,0.0007344677161188507,0.0484634036512778,0.09950929686101366,32,28,74,67,1
0.00041871881731766195,0.0008368940425905395,0.051020094949249556,0.10512459535183943,26,26,73,59,1
0.0004123571255313587,0.0009691109469036177,0.05122275247740436,0.11290609250915025,32,26,70,59,1
0.0010990974191095698,0.00021376129023184914,0.1843909542971221,0.041873666098258204,38,42,72,90,2
0.0011193712494274339,0.0002171013211331309,0.18356430635617527,0.04118332509050692,40,42,73,88,2
0.0012344805596410076,0.00022348287140067224,0.20937130360013187,0.04489468350695979,34,42,75,92,2
0.0011904315252258052,0.00022493566476110272,0.20067203764333802,0.045751786744178624,32,46,79,93,2
0.0011449587197714872,0.00019761826772410893,0.20857455318616186,0.04271776633367095,32,48,83,94,2
0.0011803122451312185,0.00019949379271095308,0.21842128022333016,0.040388905597592076,32,48,85,96,2
0.0012282411551198145,0.0002021653373103964,0.2282419387890892,0.04022793434565536,44,52,82,97,2
0.0013033636528203482,0.00022666301163868014,0.23360953732827497,0.043431040311443035,38,40,84,92,2
0.001312828660477481,0.00024427425402108433,0.22416725386071645,0.045696101159325125,42,40,81,92,2
0.001693263398031252,0.00034469746801190997,0.20490238168617173,0.04515799625674315,26,28,65,79,2
0.0015402022662365491,0.00035169081550169806,0.15954020637086358,0.044310687386689473,22,26,58,70,2
0.0015501755954538223,0.0003722529380564575,0.14754068208242138,0.04327999908013324,22,22,58,68,2
0.0009033106598081642,0.00031787773754425727,0.11876654369375399,0.04183840411706464,26,20,60,65,2
0.001098739128956938,0.0003722151527099464,0.15737706083096584,0.05465415095676113,28,28,70,69,2
0.0012638465577461174,0.00040296345060843576,0.18841564572431013,0.060584696270045396,30,30,76,74,2
0.0012543841353616317,0.00042210066601804867,0.1897607048732702,0.06789126793059037,34,30,81,76,2
0.0012836045987714875,0.0004279652108629947,0.2049114034822591,0.06977433115247772,34,28,85,77,2
0.0012838437483387367,0.0003847070862989932,0.19902647059896258,0.06332452852797937,36,36,78,80,2
0.0012694380072891143,0.0003524072902848974,0.1905391275128015,0.058444817494094164,32,42,76,85,2
0.0012705166784421915,0.000297350565126682,0.18733118774551222,0.05379934790732942,32,44,74,81,2
0.00125094630618205,0.00027502594942919133,0.18864474125947328,0.0495738579662486,32,36,70,82,2
0.0012880161648779007,0.0002768223347751361,0.19949875918655516,0.05227468580180169,30,38,69,78,2
0.0012362107509887922,0.00028672352962487484,0.195403707109585,0.050271181490725965,30,40,69,79,2
0.0011898220091905484,0.000298158878142893,0.2049821822789835,0.0493045047486922,34,36,72,84,2
0.0011659689997310276,0.00031983052001340983,0.19715370949931127,0.051616936299540214,34,42,79,87,2
0.001071593196657261,0.0002877414152597499,0.1870346679332162,0.04840177933279717,42,36,85,90,2
0.0010329058123447427,0.00028714843015305183,0.17842781675238242,0.04719688972403818,38,34,84,85,2
0.000942727307971556,0.00031669663680609277,0.160278996985407,0.051806998201450356,40,38,80,80,2
0.0009842817399848024,0.00031172546705403813,0.1657319499466099,0.052945079417980455,34,38,76,78,2
0.0011284516864753288,0.0003116434861520335,0.1760695262320032,0.05286621328891774,42,46,68,81,2
0.0012081845072468705,0.00030913316844977253,0.19424193574313886,0.053948428436328896,46,42,69,82,2
0.0012842063610903737,0.00026934501229931607,0.2083676426290419,0.047318449868905835,38,46,72,82,2
0.0012334764736222402,0.00026227886456031696,0.2172510879153891,0.044092445069956195,40,38,71,85,2
0.0012949013227368533,0.00029012806272189155,0.2364840592954045,0.04512329387065105,42,30,75,83,2
0.001232031227005379,0.0003036199595666627,0.22275512072017897,0.044688444404503834,38,30,78,75,2
0.0011487742848308123,0.00032876055463232205,0.20291385811770482,0.049796784522323494,38,34,78,79,2
0.0012696121132530344,0.0003741947611443671,0.20273551895009853,0.05327734144238517,32,32,83,75,2
0.0011719966884478788,0.00033381403723920503,0.17906932340400172,0.05089719757412747,34,34,78,75,2
0.0012526794532610138,0.00033962899574722726,0.18595517512894513,0.05378637140633222,36,36,74,83,2
0.001257489807694407,0.0003136708957003679,0.2095854587157696,0.05055282712524999,40,32,76,86,2
0.0011742583598251767,0.00028925716523530386,0.19958552487231415,0.04905650820003114,40,36,70,79,2
0.0013430804050584928,0.0003065303907654216,0.20182308568142907,0.04923023451675752,38,34,68,78,2
0.001227358583289144,0.0003234136196767426,0.20265037825242901,0.04808261524278187,44,30,74,80,2
0.0012550088337698851,0.0003348043578969909,0.19989381846563006,0.04820170252911121,40,28,72,73,2
0.0011840663804504313,0.000337748316665104,0.2021738444003372,0.04993870724707513,38,24,77,77,2
0.0010671274815300413,0.0003256717009467779,0.1978070681543286,0.04895079013261443,32,26,85,80,2
0.0011049176677579069,0.00032633117831572196,0.201787850634922,0.05104878192358112,36,30,82,78,2
0.0011249107111508617,0.00032451155251698484,0.2014121758509767,0.05103165507539283,34,38,84,78,2
0.001056174529065323,0.00030954841511597196,0.18391632739594763,0.04943318531901217,36,42,84,77,2
0.00045372346628127987,0.002371443870638973,0.050780660961784616,0.3378114856731257,24,24,65,60,3
0.00045784796075281964,0.00224415590130253,0.04808942177972928,0.34046675327321874,22,24,70,68,3
0.00039073082609022785,0.002141527111384233,0.04683981176053652,0.32877586442350265,28,32,80,68,3
0.0003856594713263627,0.0023422144221429395,0.04563986242258935,0.33398304714398686,18,30,75,67,3
0.0003466325862512651,0.0025537905586573927,0.04363588060739733,0.34882232904284793,20,32,72,65,3
0.00039285229303945355,0.0024609213344065476,0.044825150701704314,0.3464720399595071,20,36,68,68,3
0.00038552751799793164,0.002319494454528162,0.04493810334813175,0.3332501135470127,22,28,56,70,3
0.0003580446353370487,0.0019074320194274734,0.04284207410483307,0.29235091387310314,26,34,61,76,3
0.0003581232780032864,0.0017024509828970286,0.03988487514784035,0.26334957397785425,26,36,65,73,3
0.0005319869564738772,0.003388826125216305,0.0449306727429635,0.31203690589306743,20,14,66,65,3
0.0004886616918784955,0.0033676368827979474,0.04099131086720732,0.3032675086102895,16,18,62,65,3
0.0004977021477496277,0.0038969390209182162,0.041416431542097655,0.35412309030776823,16,20,57,56,3
0.00023418079604188186,0.0020121124851063777,0.026829787946973573,0.25844750270732053,22,20,69,67,3
0.00032812786944358874,0.0024940333287396268,0.03797721804950874,0.33259851398436335,26,20,63,67,3
0.000383455465903303,0.0024019911908271067,0.04199649485576929,0.3415714260814065,26,22,61,71,3
0.00037944522247233196,0.0019618368123887615,0.038864599822666025,0.298863308288989,20,24,62,78,3
0.00038134133304079865,0.002093559249136693,0.03954289037935807,0.3082322089820776,18,24,61,69,3
0.00035463340665175776,0.0016885970844504267,0.036973874385377074,0.2672307179382656,22,30,65,76,3
0.00034613671456405965,0.001749561960774199,0.0352495912681458,0.26952675074762644,24,34,72,73,3
0.00035350766128592953,0.0017332810266024836,0.03771923019667977,0.2762468458395873,20,30,64,72,3
0.0003547353347222025,0.00174985093639069,0.042669949735698105,0.2810602699112813,28,36,74,71,3
0.000348474984149209,0.0018465883591789784,0.04081088426123822,0.28250776152266466,28,30,72,67,3
0.0004103082144673727,0.001965128386732924,0.04292503450778546,0.29274269585407314,22,28,67,66,3
0.00042905640495862255,0.002133670213874098,0.04322125663320265,0.30512983287628825,18,28,61,66,3
0.0004313157700463903,0.002090006680634197,0.0427243964652683,0.31292452237621987,22,26,60,71,3
0.0003620566280582819,0.0019035351998046234,0.038470358956104254,0.29874068923947095,20,22,63,77,3
0.0003774397528213181,0.0018978198145933672,0.040519689841347746,0.28646717205167566,22,22,62,70,3
0.00037354205860521544,0.0018777779632014662,0.03929654478148495,0.27051327951695997,18,20,62,66,3
0.00038866878723230213,0.0017432107712848722,0.03937672360697698,0.27405063559067816,20,22,64,69,3
0.00045568809846464555,0.0021097077065492954,0.04777047221631224,0.325454337879469,22,28,61,66,3
0.0004636876123801781,0.0021194792301825467,0.04560966811546467,0.32573088785811144,22,30,53,68,3
0.00044770485203769875,0.0020873155696790728,0.0462694469251324,0.3222932408906902,22,30,58,69,3
0.0004421613892317031,0.0022371484443628933,0.04024435107841426,0.3159879587389715,16,26,53,66,3
0.00035103296453837266,0.0019238102311777805,0.035858158889307455,0.26734817086011214,16,30,63,66,3
0.00030623334866893573,0.0017678474566387506,0.03412621547796828,0.263765317804626,16,28,62,65,3
0.0003093585022753544,0.001646995262644047,0.03166803629620442,0.25630688595812884,16,32,64,72,3
0.00032043412372832156,0.001522195621334334,0.031136544423855238,0.23963494453237885,20,28,61,71,3
0.00034119319676486617,0.0017733534660413406,0.03212813603949003,0.27906338402129754,16,26,58,74,3
0.000355248435824278,0.001742215652496294,0.034995658775757554,0.26623666966909393,16,24,68,73,3
0.0003137139805288696,0.0017175587838961894,0.03202232448545737,0.2552242838717096,16,22,69,67,3
0.000271989387972068,0.0014840145527668061,0.030749882839958487,0.240180188705644,20,22,82,73,3
0.00020854139905276465,0.0012399229719067294,0.025288052727650556,0.17867422214552545,16,26,80,74,3
0.00017490426360863297,0.0011821143794044386,0.022216549596850287,0.18153814153624034,22,24,80,76,3
0.0001783535318671452,0.0010956938412477637,0.02355915820151552,0.17806025730837002,18,30,82,80,3
0.0002097320596266233,0.001252952057839618,0.02516874061117417,0.19719816444889013,22,36,72,80,3
0.00024274283850395418,0.001543375272102255,0.0293239291023041,0.2305457738305791,22,32,72,75,3
0.0002504938485312009,0.0015964499500545457,0.03098281679550786,0.23457248657395052,32,34,66,72,3
0.0002623194693166186,0.0015989852828805736,0.032506657497122726,0.23725993618515975,30,34,64,67,3
0.0002553857763027518,0.0016223367712639091,0.030402833217727656,0.2358284886620573,30,26,72,69,3
2.148197428842446e-05,8.744816172363799e-05,0.0029959394757256017,0.008401660377243502,25,16,98,71,4
2.7320105183531172e-05,8.673183296825799e-05,0.0031720277692521537,0.009467780118670954,26,14,97,66,4
2.7430188123933572e-05,7.983046484698524e-05,0.003274882347727238,0.008835724600477556,25,10,94,71,4
2.949117808553131e-05,8.219148800820931e-05,0.003376097212429849,0.009331765767076802,24,10,99,80,4
2.8182135975834076e-05,5.874187570686946e-05,0.0033888293358819033,0.006711145212767426,27,10,95,87,4
2.2990050022138902e-05,4.8896278630705165e-05,0.003292914270862855,0.005717718005505837,30,11,93,90,4
2.2631835389948912e-05,5.232001777342257e-05,0.0033202610513387186,0.005950019834212739,32,10,99,90,4
2.2482999613885406e-05,3.192556517216923e-05,0.003276583054201682,0.0043238448239571875,38,16,92,88,4
2.585767471198259e-05,4.258897704798036e-05,0.003375002798435347,0.0052122412199997435,33,8,90,82,4
2.858404813731943e-05,4.329503133655455e-05,0.0035363067568627646,0.0050612085652507076,28,6,82,87,4
2.779270285776937e-05,4.9677037045694846e-05,0.00364067549603162,0.0051982806656570195,32,10,82,76,4
2.7783600580450614e-05,5.745334320135027e-05,0.0035708990437271454,0.006094807118492,24,10,79,74,4
2.790822183487549e-05,9.504116082995508e-05,0.003562095455782781,0.00790107459145032,25,7,82,72,4
2.572128896793557e-05,9.387774188003798e-05,0.00339934685256564,0.008198029506525506,28,8,81,79,4
2.6175761562479446e-05,0.00013921900981737412,0.0031139217174441735,0.011862461895459621,24,10,86,67,4
2.7625166817784684e-05,0.0001369575302274256,0.003318790154468952,0.01252236716325248,22,10,84,61,4
2.5789849499632967e-05,0.00011794902128530835,0.003218992631472835,0.012117480405845593,24,12,80,71,4
2.3699679136448777e-05,0.00013478952230882668,0.0033472183516739373,0.014047546747366859,30,14,89,69,4
0.0006435688369381262,0.00013038728576836346,0.036143645679948114,0.015547723073218455,4,24,68,67,4
0.0010423810375751838,0.00021977504922353092,0.0555905332416652,0.026663010956203572,8,17,23,66,4
0.0010641148000810354,0.0002332266073132709,0.056151827899303834,0.02745813389940281,8,16,24,67,4
0.0005350822352152139,0.0002708787094084838,0.02940938214861004,0.035022993771776256,4,22,62,70,4
0.0004982347773985997,0.0002574131966164298,0.027851239280847623,0.03130837685817858,3,20,50,70,4
3.430863473764778e-05,0.00021890540800879998,0.004294542014375767,0.027324284055420606,31,20,100,61,4
3.4734084050352056e-05,0.00020619473261001257,0.004105977349553629,0.025568024365545162,32,22,101,57,4
3.518372341366201e-05,0.00018592828565191475,0.00437145056982119,0.020132044749624274,22,16,99,54,4
3.5717844607478226e-05,0.0001945052065368767,0.004535967893777967,0.021703770363116104,24,18,89,53,4
3.500247356609519e-05,0.00015261415144105878,0.004212170557590968,0.018584097917956666,28,12,85,59,4
3.1245702500245926e-05,0.0001860035629710219,0.004184125893876834,0.019739028127045987,28,16,88,55,4
3.0917008693555637e-05,0.00017044552063678176,0.00422246233885119,0.020501855006299155,30,20,90,60,4
2.9748420514846235e-05,0.00015539825013340767,0.004173930675654947,0.01850755235597531,32,18,94,65,4
2.5518704305945845e-05,0.00016326315331501132,0.003908714851735486,0.0186580189445071,28,24,104,67,4
2.7688454804289576e-05,0.00017599847766936236,0.0039559707936555,0.01963241602514329,32,20,100,68,4
2.5649883472503808e-05,0.00015518327642650284,0.003626973435689603,0.017766617871593945,30,18,100,72,4
2.5215415260916367e-05,0.0001656580641313103,0.003885472087954201,0.01973669727457089,32,20,101,80,4
2.4754730885395856e-05,0.0001512720021937879,0.0039343090093256995,0.01636319715705551,42,18,102,82,4
2.6967764032281548e-05,0.00016382354305096586,0.004318917153391405,0.01771882892384554,40,15,92,73,4
2.915035106823365e-05,0.00015816194738980282,0.004230933890548622,0.01644144048837804,36,16,94,69,4
2.952500575210462e-05,0.00013634829931182915,0.003989302326714486,0.015224026812728043,28,18,90,77,4
2.926777271912638e-05,0.00016170936039403762,0.004006787052376043,0.018332940365872723,24,18,87,66,4
2.5292811919940806e-05,0.00013688600086806852,0.003761191699645443,0.016936141826969252,24,24,96,78,4
2.6847397731749725e-05,0.00014693561909342892,0.003832706023253842,0.017938285155352698,30,20,90,70,4
2.821110858557722e-05,0.0001620359666216241,0.0040986979266052735,0.019131849646318644,32,20,94,74,4
2.7296487403417635e-05,0.0001374355630688974,0.003831741535621941,0.016321020083561264,34,20,99,74,4
3.089308761961091e-05,0.0001347190712694629,0.003960361023430511,0.017149985799450908,30,14,92,76,4
3.4275220356640066e-05,0.00014273300002636314,0.004255323892909964,0.018180782255606927,32,16,90,68,4
3.0242522368286918e-05,0.00012135384382399766,0.003982621900621697,0.016273361635433393,28,14,91,63,4
2.842374611600799e-05,0.00017001641864339257,0.004253148024102249,0.0198498869340224,38,12,98,65,4
2.8366967713231135e-05,0.00014271288522583217,0.00408161145164496,0.0164112668497636,30,12,101,61,4
0.0005452485554391709,0.001566432221997308,0.0745097714262286,0.19140271470911951,30,16,71,74,0
0.0005054449340794352,0.0015414669708885625,0.07105958836972405,0.1815449376807387,20,18,74,71,0
0.0004973299419847684,0.0014926538956973442,0.06904141447534823,0.18035720554078427,16,16,73,70,0
0.0004708681309815039,0.0012791865986184687,0.06741079009272814,0.16420384148755696,26,16,77,63,0
0.00048113144136873885,0.0014357752387064609,0.07045178146824917,0.16903543218328002,28,22,77,59,0
0.0005140498812542703,0.0014172714904808791,0.0717331338437909,0.1621614620890137,26,16,71,64,0
0.0004642521968296276,0.0014791870498473028,0.06694722035449395,0.1611233594176576,24,20,73,63,0
0.0004906553590315242,0.0015436882055866877,0.07048448881329089,0.1618535990548502,22,22,68,68,0
0.0004236120709035653,0.001504380751132067,0.05882385141972495,0.16670254708495508,22,24,68,70,0
0.00044145907930672856,0.0014820295882914166,0.05895043385345246,0.170760713895412,30,22,80,74,0
0.00041866981819782296,0.0014576505093510574,0.06250066947645022,0.17463909122307167,26,26,77,70,0
0.00040735254735631916,0.0013580067403105899,0.05915677541490662,0.17257750145362089,20,30,80,73,0
0.0003772810494593369,0.0014992373885442526,0.05923324332247427,0.1840394166151919,30,28,81,68,0
0.0003954963671755548,0.0015050917459581944,0.05785044619491779,0.17805405720004125,24,28,74,61,0
0.00040993685062890863,0.0014080552122245787,0.055567014612505385,0.16855162999471304,36,28,75,60,0
0.00042465495564656335,0.0014465667872235457,0.054787684498105234,0.1829407093539182,36,26,70,54,0
0.00046505878949603297,0.0013387333482745717,0.05701106232339182,0.16264626521811262,38,28,67,60,0
0.0004082695269027229,0.001270500556831118,0.054121357318998975,0.1613302961066095,36,26,74,62,0
0.0004494150386277024,0.0012499227858254755,0.0588009559894942,0.1579501385663191,30,34,69,59,0
0.0003836259140092782,0.0011880049977668857,0.05317536377219048,0.14180996288904943,30,32,72,69,0
0.00036297571254466165,0.0011237470685070928,0.0509471083027676,0.13171856039950433,22,30,79,61,0
0.0003727790187927791,0.0008913568494358702,0.050937307507822535,0.1251085902640239,24,32,64,67,0
0.0003300192020789987,0.0009047554379349988,0.046665385538786665,0.1341621746519103,20,28,63,67,0
0.00040763641805603295,0.0009378457085983372,0.05087899083418481,0.12997991091662503,30,26,68,61,0
0.0007746376630699529,0.0007191252205297015,0.09159957591894581,0.10548597309062023,12,24,61,71,1
0.0007736730844446798,0.0008796183972563032,0.0940867580580176,0.12185231862747437,14,28,62,64,1
0.0008003700337765334,0.0010242597159530018,0.1021975634061654,0.12166638287470512,22,24,61,59,1
0.0008273093435690115,0.0009017850002999399,0.10696770103812127,0.11097569316296439,26,26,65,58,1
0.000773736819515512,0.0008586260678701059,0.10145256013886458,0.1160501338676195,32,20,73,66,1
0.0007837321072323428,0.0007066522559570035,0.1021604859441873,0.0988491067102659,26,24,71,65,1
0.0006968956125245791,0.000663272073834056,0.09114760834377847,0.09932175360269649,24,24,70,66,1
0.0006525108347088062,0.0005745539858659945,0.08485550343428316,0.08936578180069704,20,26,67,71,1
0.0006007087187621301,0.0005331769415718554,0.075099212696402,0.07993213033818464,24,22,62,67,1
0.0005382696595834809,0.0005974322188279225,0.06560209872260755,0.08705090283938935,16,24,72,72,1
0.0005600660569823662,0.0005385295373313809,0.07028367132951847,0.07926450644541676,22,28,71,71,1
0.0005151827325839425,0.0005993107517468197,0.06706592849061772,0.08510028482335873,20,22,69,75,1
0.0005858864037591334,0.0006316607510426301,0.07892822631845771,0.08586738245902359,26,24,61,73,1
0.0005682302411461375,0.0006474343309464288,0.07673108995713437,0.08856591718648874,22,26,59,77,1
0.0005787351853466676,0.0007019608180359575,0.07554337887409006,0.09689554055595119,22,24,62,74,1
0.000528254646766559,0.0006630383012384795,0.07303071818897598,0.09101664686613639,20,24,65,73,1
0.0005451426345324988,0.0006704188153410589,0.07093433304214516,0.09701555149239215,18,22,65,75,1
0.0005213827009944669,0.0005831733015245706,0.07087063936865687,0.08083665886590692,26,32,70,67,1
0.0004570984695821527,0.0006087584464752256,0.06542035087062881,0.08065202657094672,18,38,71,70,1
0.0004911614228040069,0.0006469379064020938,0.0662220904412866,0.08021735786837805,20,34,63,73,1
0.000510703633981376,0.0006896792800188385,0.0652940546565034,0.08314849908150611,24,30,72,76,1
0.00047685186244549927,0.00072413250648589,0.06414372346490572,0.09370658842223661,26,24,69,74,1
0.0004703843679291366,0.000708555396195263,0.06319569820403155,0.09168055831994207,30,24,69,69,1
0.0004810840366204933,0.0007120001365558438,0.06478916153677239,0.09875447593590966,30,22,65,67,1
0.0025277823712866647,0.0003053046127607036,0.4298616635924557,0.05833218057804945,24,20,66,79,2
0.0023351413055907374,0.0003002331129121081,0.4195584316709762,0.052650350726730015,24,18,77,82,2
0.0021035094618545355,0.0002754990188751409,0.3725254675039019,0.049229804349330976,26,20,79,88,2
0.001979439584296153,0.0002830195507606692,0.36616043947275745,0.049142641926280074,16,18,79,87,2
0.001982482925002673,0.00023254538520353402,0.3398572627745849,0.04161095808561344,16,16,80,90,2
0.0017997261536984728,0.00023005063530939036,0.29564517340569246,0.044290013052247876,22,18,78,86,2
0.0016502277123867793,0.00025183171849645986,0.28086565016896936,0.04272457130324386,26,22,72,85,2
0.001505635433570873,0.00022479439583225773,0.24683220541682233,0.042594668030383843,30,10,73,94,2
0.0014262015032529432,0.00022578821131645003,0.2332706510508356,0.04371846469143238,28,12,78,96,2
0.0013408653666479326,0.00022846959303965604,0.23292864658672932,0.042358622425201296,26,16,70,94,2
0.0011749553010706498,0.00021566215042702542,0.20180694957397702,0.04150588388538353,26,14,78,91,2
0.001168056259180813,0.00023047222514623785,0.20062105694143048,0.0437127441903298,20,8,77,85,2
0.0011075590674400268,0.00021945219281201578,0.20150408643511653,0.043851040059594316,30,12,77,85,2
0.0012792540731592086,0.00022276779987679944,0.2136501369891292,0.044645726280115317,28,12,76,93,2
0.0013543248706621245,0.00023817469769851638,0.24098351549544944,0.04653573491876458,34,12,74,91,2
0.0013649667665172256,0.0002310448155826448,0.23938755622043092,0.04709336828330187,36,18,73,96,2
0.001519595205253116,0.0002449418615999042,0.25606017419837174,0.04715203640708985,38,24,79,91,2
0.0014363816700179658,0.00021997672705737373,0.24126952283810302,0.04360658420791799,40,22,76,87,2
0.0014153872129418306,0.0002092200327068781,0.23375417945620086,0.04130894308832184,42,24,76,88,2
0.0013053489108591151,0.00021528239574587597,0.22135946881830115,0.03899388220777806,44,20,76,89,2
0.0012193515664913948,0.00020601137645285124,0.19949920512578512,0.03772003483415742,38,24,69,92,2
0.0011221239919345142,0.00022246207096101144,0.18826330485723175,0.04174781623980971,42,28,73,85,2
0.0010436955288152185,0.00021855915970563688,0.17088485836774858,0.04128680349779849,36,24,79,84,2
0.001108104486354912,0.00019464339771201717,0.18433316832983365,0.03957779851398306,38,24,75,88,2
0.00025119600019117913,0.0017649416707540288,0.028941528055007906,0.2549089908497148,18,18,75,74,3
0.0003471103866004343,0.002003760277326971,0.03302718453492835,0.2759342960356814,14,18,64,67,3
0.00033869896369433995,0.001938385881463086,0.03750769259809443,0.27222674903658156,22,20,62,70,3
0.0003707150289347913,0.0020851163268596567,0.04130316138646862,0.31651726844517003,24,26,68,68,3
0.0004159547303093364,0.0021575856679183296,0.04387300792709324,0.31731062288184975,24,30,66,74,3
0.00044083929931469217,0.0020673606425574954,0.04551281656786242,0.3202112227160082,22,28,63,75,3
0.00041883011330913386,0.0022295654046975586,0.04383176512037809,0.3482566134799986,18,28,60,75,3
0.0004034447846284802,0.0022912428643425066,0.04115710637796642,0.3351859646732427,22,26,56,73,3
0.00041067651206116697,0.0020127589280917045,0.03918574502817139,0.3164072010417631,20,28,60,71,3
0.00041406923124288084,0.001968889199777087,0.039182922591158915,0.31551680300142704,22,24,53,73,3
0.0004370640402693948,0.0018011100189255314,0.040789855321951535,0.2888352393513995,26,32,54,77,3
0.0005033159751712199,0.0018847226926191384,0.04523646962379321,0.3046990293121411,24,34,54,79,3
0.000524467359170427,0.0020470622799179925,0.04514921249748731,0.32450162697143337,20,32,58,78,3
0.0005292867310335655,0.00220083584452557,0.04376666130711613,0.3402479410253838,24,34,62,77,3
0.0004860708006429628,0.0022257877873247734,0.04451707241057856,0.36084311014805026,22,38,61,74,3
0.0004487663271306018,0.002110968555987274,0.043620649726223426,0.34247867267860993,26,36,64,74,3
0.0004281282913257231,0.002178417915846793,0.04366363284617416,0.3415210604863709,24,34,66,71,3
0.00046282624745968204,0.0021350719340986345,0.04500799086914335,0.3208002685788749,27,34,57,70,3
0.00040814078758550596,0.0017260470814539459,0.0414243860859716,0.2602801371472474,24,30,59,72,3
0.0004767517047931973,0.0019336437778942784,0.04920778466824701,0.2870310168427373,22,30,65,72,3
0.00044044845629399794,0.0018383894085309271,0.04833930644532061,0.2725888407439049,20,26,57,73,3
0.00040472418556027144,0.0018571430246342594,0.047429779626074524,0.2678804075279049,20,30,53,71,3
0.0004321806344801385,0.0023473029143199083,0.050011639194036596,0.32601518858359924,20,28,54,66,3
0.00042040522493467483,0.0022183744221198694,0.04529072265445074,0.32368201532935537,20,26,62,63,3
2.377420414645059e-05,0.00011717707979654274,0.0033871117472262994,0.013298266157310983,34,18,100,78,4
2.454041761656772e-05,0.00016629555479394508,0.003309869861747315,0.01747080814142815,40,20,100,64,4
2.4009506768339596e-05,0.000138466937682232,0.0033642781284965286,0.014170722161881838,36,16,97,70,4
2.1491634270747162e-05,0.00014207588767827298,0.003076925566775528,0.014667087178717696,30,14,99,63,4
2.0950338798729337e-05,0.0001623633742738584,0.0032760951374424235,0.015797883656479585,28,10,105,66,4
2.271725674601945e-05,0.00011180146825672213,0.0034254584390888327,0.010907956940277562,26,18,106,68,4
2.21274239102677e-05,0.00015052499440072674,0.0033471445295442407,0.015715760528825746,20,14,107,65,4
2.3986638102861274e-05,0.00013109371744131934,0.0035349152780531985,0.014369830508807076,24,10,109,65,4
2.6644507530339845e-05,0.00013429361842122166,0.0037000278734160962,0.014644219791194707,24,10,102,60,4
2.66711617215143e-05,0.00016017813227980768,0.0035104114551269623,0.016040123821288183,22,18,101,59,4
0.0007843694680198815,0.00021726878332110585,0.04421178199514135,0.018650513182691356,26,12,71,55,4
0.0008196951875460663,0.00023556340059750357,0.04473386833475294,0.021610218429251666,22,12,72,57,4
0.0012430022407213324,0.0002522507096229283,0.0654859304972911,0.021827148478229915,32,10,28,59,4
0.001214933748314218,0.000260663174177697,0.06470733383379505,0.02394145212579213,34,8,22,64,4
0.0005533966244790023,0.00018545270154845836,0.03056825649506924,0.018958399748330107,24,12,68,62,4
4.203053826814084e-05,0.0001778666527084841,0.004301721881285531,0.016697734604967672,32,12,89,69,4
4.037028282363163e-05,0.00013655530919783087,0.0041370445288012305,0.015056040765229059,30,20,83,77,4
3.4317976741338726e-05,0.00013473592909242236,0.0037384740142449783,0.015445765443342654,26,28,96,63,4
3.391920594677851e-05,0.0001089384123779212,0.003694776208776175,0.01276692717207681,30,22,90,69,4
3.333329136984692e-05,0.00010367703442045042,0.0035308901515435547,0.011481154957000906,26,22,93,81,4
3.110505277597738e-05,0.00011429290066198771,0.003887003127131619,0.011791693072528333,30,32,86,80,4
2.931943202649602e-05,8.496250640619935e-05,0.0037961751976453005,0.008180269139903404,32,22,89,72,4
2.900001914042547e-05,8.561593151700032e-05,0.003547978673315136,0.008291930832966995,30,28,92,67,4
2.5221041475980942e-05,7.48457900627164e-05,0.003349394427637776,0.007244304638451662,32,38,95,67,4
