f1ch1,f1ch2,f2ch1,f2ch2,f3ch1,f3ch2,f4ch1,f4ch2,Category
0.0006309726287017126,0.000936110799914002,0.044373821972458094,0.07333955315465632,14,16,47,56,0
0.0006266075839922465,0.0009204597888530601,0.043293892682408415,0.06114261760185642,16,16,47,53,0
0.0002920387251120662,0.0008538072186826035,0.023404485281015276,0.05412668427640117,16,14,52,53,0
0.0003014787794024156,0.0008574010302408984,0.024142651129494257,0.06616729126245133,16,16,55,48,0
0.0003678487967302713,0.0009828438211963598,0.024238370565650442,0.07685230435192812,12,12,54,48,0
0.0004032155381775317,0.0011237065490157,0.035320022301354066,0.0951079514373392,16,18,52,46,0
0.0005143924290568165,0.0012052115573519288,0.048259809197369705,0.10433673015445905,18,22,50,51,0
0.0004776915849199074,0.001170438645292382,0.050527207868914285,0.11241150212578266,20,20,61,53,0
0.00046076535391405846,0.0010754129741988897,0.05876012599213405,0.11441154503951355,24,26,73,63,0
0.000533622419311905,0.0010939124992605598,0.05991552453797336,0.12243487886851653,20,26,71,69,0
0.0005490044977462809,0.0011123382455383636,0.05682951324975288,0.12793232122726772,18,26,71,66,0
0.00047605862590137735,0.0009993233983284014,0.049957960818879814,0.12225521904115084,20,24,66,70,0
0.0004750060972979581,0.001020346239529061,0.05287487470375379,0.12663896896330099,22,24,60,71,0
0.0004099965764707664,0.0010889006064027907,0.05418392707769393,0.12321605777322658,26,26,65,60,0
0.00043903315589507996,0.0009327563093733957,0.057999131963708705,0.11134983708989592,26,24,62,62,0
0.00047409093024449595,0.0010081108598935088,0.0624558850381817,0.10999245226733692,22,24,65,59,0
0.00047257107939593544,0.0010994849720530214,0.061295932526198874,0.11298767673315416,26,22,64,54,0
0.00043308111119545,0.0009386849329441308,0.058584713202606935,0.10784608922581986,26,24,64,57,0
0.0003898488260885885,0.0009359052224186392,0.052939982915197054,0.10530346887472504,28,26,65,64,0
0.0003622626997804629,0.0008492136459597559,0.05256244021000366,0.09621230688768356,28,28,73,65,0
0.0003755613220309438,0.0007945539585984006,0.05205920498952953,0.08835373145451142,26,20,75,67,0
0.0004160402661001476,0.0008201162673376695,0.056450988947129854,0.08333182526628968,30,28,71,68,0
0.0004364775539862711,0.0007382369266423162,0.05818135992404172,0.08059247283984312,30,24,77,67,0
0.00042335607039832064,0.0007969494058998903,0.0577421795792031,0.08877373579117656,26,24,72,67,0
0.00041601479195613265,0.0006820654198176628,0.05769086090869056,0.08723816637051449,30,30,70,71,0
0.00037578076110047354,0.0006983014269907048,0.054628511882728374,0.0890302850542825,34,30,74,77,0
0.00035453151529028407,0.0007668665630294261,0.0486776543044643,0.09468447345484544,32,30,71,80,0
0.0003786165646267068,0.000798534965626113,0.05001083642847791,0.09402306425790029,28,28,69,78,0
0.00035193483812018895,0.0007475092355966753,0.04681623553690671,0.09269179534084143,28,28,70,78,0
0.00029977286039946827,0.0007418549548917435,0.039846092983503015,0.09166008435646297,26,26,75,79,0
0.00029996615536453475,0.0006370564302253416,0.0428218060339602,0.08816190750595891,32,30,80,75,0
0.0003004380175635415,0.0005386965689798216,0.04157404450402017,0.07989260811880874,30,22,78,81,0
0.0003009346553833445,0.0006367399398857193,0.04260499145453914,0.08277397555921186,34,24,79,73,0
0.0003199075249734602,0.0007282375198865472,0.04711814667513845,0.08622362351239933,34,30,73,62,0
0.0002914527940953828,0.0006836726481401355,0.04542623569249095,0.07626010484705795,34,22,74,65,0
0.0002784379670722871,0.0007179868891117504,0.044203561275963456,0.08099750067612865,32,28,76,63,0
0.0002979919002109264,0.0006909058984333956,0.04430915119778346,0.07512478232752576,30,22,70,64,0
0.0002748877337401318,0.0006016551278006039,0.042094598669271135,0.07344865554677299,26,26,72,60,0
0.00029062290206975416,0.0006393768380307467,0.04027439576178366,0.07765501875746673,28,24,70,64,0
0.0007566337634752236,0.0007049574469769346,0.05899784076103604,0.07528593376137319,10,20,72,58,0
0.0008132246596916197,0.0009611319650214632,0.06202583641720869,0.089843626759587,14,20,66,55,0
0.0008048920142392838,0.0010127575899901821,0.060585019875506844,0.08775127166991063,14,18,64,58,0
0.0004688825652174707,0.0011021766301266133,0.047681836613017545,0.09406613560989506,20,16,70,58,0
0.00047542726920993256,0.0012107995077660833,0.05365325443554722,0.11042925720241722,18,12,67,57,0
0.0004637797870479674,0.0012013410486076343,0.05298372024030274,0.11923944193387197,22,12,66,56,0
0.0005287985837329057,0.0013535202316609213,0.06540363072447182,0.13235937656796679,24,18,73,59,0
0.0005250418613521543,0.0015463472594320377,0.07014331051027724,0.15803726136034119,28,20,71,65,0
0.0005206119019607422,0.0015667540616260132,0.07066359515239108,0.1622016601343995,30,22,71,62,0
2.0071890148746053e-05,0.00013709568209844072,0.0033337048849404194,0.0163817096281985,28,20,87,71,1
1.97605620987477e-05,0.00010313012832375961,0.0030658156457877483,0.010120631857072801,42,10,94,71,1
1.946317634730176e-05,9.98657510592439e-05,0.002983551501872307,0.011213862903328146,36,16,97,67,1
2.1514732655770665e-05,0.00021867828627562973,0.003203933522834627,0.021192927035748203,30,14,95,69,1
2.7847465606849116e-05,0.000390979565415494,0.004113865597462679,0.038878785174672637,26,18,95,51,1
6.491378533373849e-05,0.000548979653318027,0.006511328495848922,0.060670271228556866,12,20,76,55,1
0.000425369728664201,0.0006330817666915671,0.03158815486576046,0.0682746865942262,4,26,49,54,1
0.0006682338628131386,0.0007287472064910176,0.05850129771231067,0.08539794132460671,12,24,57,53,1
0.0009419102881006079,0.000834740090940917,0.08920739431901492,0.09385541203476461,18,26,52,50,1
0.0013205115023524375,0.0009669394243164059,0.13046847020075494,0.10656872722238392,20,24,50,45,1
0.0012179390541517336,0.0010753669272804485,0.13119519832880597,0.12912993841479756,26,24,55,56,1
0.001155683778968708,0.0009216157364416549,0.13140590635797142,0.1196904379570664,28,30,51,64,1
0.0010844718297300185,0.0008074336287139268,0.12114334398197422,0.10846025968646081,28,30,57,70,1
0.0008031963297982677,0.0007663555510826119,0.09955818749114986,0.10156178810548348,32,24,63,68,1
0.0006586720798812504,0.0006276848936666574,0.0825403906975063,0.0791695040623038,26,20,62,66,1
0.0006243252222412096,0.0006765627693804681,0.07524111278077815,0.08246311342228868,26,14,67,65,1
0.0005044566370261199,0.0006590175331346301,0.06359579114966753,0.08306493443048599,32,20,68,69,1
0.0005038712988979725,0.0006036821953247879,0.0667966938066286,0.08055297789187528,28,20,66,74,1
0.0007404497060327894,0.0007137081998039818,0.10028658970126679,0.09775773277335317,22,24,63,72,1
0.0007330415068203603,0.0006600100184293646,0.09382110914156606,0.08872285700675109,22,22,64,73,1
0.000697627449866121,0.0006726123328556374,0.09923305726134601,0.09040381589517003,18,28,56,73,1
0.000543753880615181,0.0005081903067756011,0.07858227348602068,0.0734946496732169,16,30,64,71,1
0.00035864957189725216,0.0004375473354436223,0.04694527851793354,0.06566650911710209,20,30,66,69,1
0.0003414193433737446,0.0005866245214171677,0.0441651837344933,0.0771869248658131,16,20,74,59,1
0.00030017037619882865,0.0005176489792456423,0.04098975057960135,0.06905409696831578,16,18,70,63,1
0.000390271416493124,0.0006008474589748846,0.05406361951214963,0.07536916952363204,20,18,67,67,1
0.0004554580623353951,0.0005503295082323293,0.05984847799495257,0.07047617582248714,24,14,68,72,1
0.000528338325786534,0.0005718230517923655,0.07421721044738991,0.07514674974441313,32,18,65,68,1
0.0005760771127364915,0.0005751650754814809,0.07962456372422348,0.07849385451658664,26,20,72,81,1
0.0005887556500085861,0.0005124052022683199,0.07892896030295743,0.07775700216763418,30,24,72,89,1
0.0005581082454539991,0.0005406085806603622,0.07647904214311266,0.08346445467670063,28,30,77,81,1
0.0005101586274060666,0.00043350060906858904,0.06745654745931184,0.06500997276228031,28,34,73,82,1
0.0004462005655813236,0.0005453819609709987,0.061264729771367286,0.07638388858550606,32,16,70,80,1
0.00040219747046087487,0.0005936058683523613,0.054807457990527185,0.07938892425128859,26,24,63,69,1
0.0003613791091241532,0.0006069340036978585,0.05144523216065222,0.08451653902748353,28,24,64,77,1
0.00040243308176259057,0.0005856940611346007,0.05203524821261982,0.08703137729270416,28,28,62,75,1
0.0004733488343762627,0.0006121656882862727,0.057449987959298565,0.08672008218361263,28,26,59,75,1
0.00047591239409914583,0.0006126232295090782,0.05826796164616096,0.08194752021476366,22,28,66,74,1
0.00044441558268941807,0.0006164100276561824,0.05480255306412245,0.08452332371885395,26,34,68,75,1
0.0014691804064712489,0.0006689607792073113,0.10212715877783368,0.0790885158347971,8,26,59,66,1
0.0014329396014524348,0.0005943222560748585,0.08765545379493413,0.06725822822481356,6,18,61,70,1
0.0013616605719000714,0.0006556286144566327,0.07769652287759424,0.07281362536026738,4,18,54,68,1
0.0002049492431593053,0.0005846132370831541,0.02084568493084228,0.06782014632576623,28,20,70,70,1
0.0004095210183911349,0.0008460000308064205,0.03913363880541273,0.09032477489389004,26,24,65,66,1
0.0007337284518638731,0.0009906713323427276,0.08446523490375825,0.10902596341577812,20,22,65,62,1
0.0008291868679018842,0.0010897687078546417,0.102650252653722,0.12534690111309857,24,18,64,61,1
0.0009226591919504031,0.001116329274821082,0.11751781037223041,0.12891991099475866,32,20,63,58,1
0.0008447749557116298,0.0011542693584865357,0.11474924819456336,0.1266145698991343,28,18,59,60,1
4.008649133720675e-05,6.808034849064864e-05,0.004519234303202194,0.0073802515046958225,20,34,88,64,2
4.35853913557976e-05,5.5123803073484645e-05,0.005134585327283161,0.006005715341903005,25,20,91,73,2
4.559444988303624e-05,8.191339106168327e-05,0.0055819105595573335,0.007513538005131072,20,22,86,64,2
6.857334738644777e-05,0.00010088043267606747,0.006783714666078373,0.009577869147736309,20,16,72,65,2
0.00010100037207420646,0.00014428051406451065,0.009523168048258373,0.013896803115379951,24,16,69,70,2
0.00015762717711450853,0.0003257262150311203,0.01848514714088472,0.021002125514101206,22,16,66,59,2
0.00021927956032893214,0.0004608824621802698,0.02752270975171744,0.02525800403966246,22,12,70,56,2
0.00030067857058390285,0.0006883845497855397,0.034997766567379004,0.03414402796320148,16,14,60,47,2
0.0004221297860490588,0.0006965234188203534,0.04742245424472524,0.0336523707830544,20,10,56,45,2
0.0004821307701062057,0.0006689988007821702,0.05053246860569681,0.036268270077724804,22,10,62,52,2
0.0004719286429014196,0.0006026651425071626,0.046073549781456974,0.04547933736027428,24,12,62,53,2
0.0006135829462846115,0.0005861597595025748,0.06178458578391754,0.04828392465814831,14,12,65,51,2
0.0004919677742957202,0.000749138823352325,0.05103827371906338,0.06498970440279847,16,14,64,50,2
0.00044962599528764813,0.0006133431691640192,0.047291654327512034,0.05852124482966096,16,12,68,58,2
0.0004539671909995862,0.000451397400933379,0.05001639386995842,0.04580152801973937,18,20,72,58,2
0.00029548486023617216,0.00041374280525137744,0.03634301112601807,0.044841472053332276,28,14,72,62,2
0.000437380424593709,0.000278328893182137,0.05175019480508701,0.0276570806310682,16,22,66,59,2
0.0005607039222794916,0.0003678611905146762,0.05925395226468606,0.031065507381136382,10,18,59,56,2
0.0005679566797129925,0.0003418849176324649,0.06537862218539028,0.030161690888362725,14,14,53,62,2
0.0005420102318629213,0.00035353310222923035,0.06550879731037522,0.03080298084985689,14,16,61,59,2
0.0004527155859658224,0.0004584503293807421,0.0556542352135445,0.03294235745096857,16,15,66,59,2
0.0004896226843903043,0.0003921433488137349,0.049095876638723904,0.034903786753800015,16,24,66,57,2
0.000285611863588914,0.0003585912865763572,0.04233257537691594,0.033076815018594344,26,22,69,50,2
0.0003504364830368286,0.0004140684321235967,0.04536717831366734,0.035413309662970786,22,22,67,57,2
0.00033352753523300594,0.0003302259851930588,0.042980763595637066,0.03375841626371825,20,20,73,62,2
0.00034871990794237536,0.00032669360830710323,0.04561467426171635,0.03067408095069795,20,16,69,64,2
0.0003546369735433639,0.00028610725199930734,0.04494433445390779,0.029134122725813474,20,24,68,65,2
0.0002821053961561138,0.00025534769470962523,0.04103881414547327,0.028002880208386965,28,26,73,70,2
0.00037326030651287133,0.00023097164527339899,0.051057204492439855,0.029216390374034593,22,34,73,73,2
0.0003465816510635727,0.00025349546830806037,0.046823621784885854,0.03465998820389829,22,32,74,74,2
0.0003785284239482976,0.0002895121221710524,0.05086843343951619,0.03460727869369453,22,30,75,73,2
0.00040116829637421356,0.000291893790683888,0.05272929175641925,0.033666514846703244,14,20,76,75,2
0.0003776846445257256,0.00030851068743603915,0.051212257434812135,0.035142093078743386,16,28,73,76,2
0.000405525072500921,0.0003469912827545114,0.051924451160949764,0.033005480363381585,16,28,74,71,2
0.0004641308087900965,0.00037832549331885576,0.05879141977315498,0.03508178080609572,16,20,72,68,2
0.0004770792827659804,0.0003925031903861271,0.05901118441680054,0.03899340376455825,22,18,68,66,2
0.0004698370027234868,0.0003835401485959743,0.05896458505086507,0.03831785296324916,22,20,72,62,2
0.0005006691742545813,0.0003343024071550625,0.06050742827874483,0.03764438512488918,22,22,76,66,2
0.000408384606077368,0.0003772416075635442,0.04993935377831727,0.040036893698778615,16,20,76,57,2
0.0004614739456580646,0.0004138293424740168,0.046342174514256707,0.03411788954535713,18,12,72,56,2
0.00040538525446752287,0.0004775030778420912,0.03378279444193971,0.031038323125312083,12,14,66,41,2
0.0003527305849981631,0.00043709899238590156,0.025613412253194023,0.025184182019270616,12,12,64,45,2
0.00017845405798446034,0.00028745799378581305,0.0184347594891695,0.017248533833466397,18,14,67,50,2
0.0002146946513634406,0.00031714004999489385,0.02323098245264795,0.020085059376685765,20,14,63,57,2
0.00026207610236590376,0.00026262431384981206,0.03382625474616185,0.022355590792750783,20,18,63,73,2
0.00045629775292241087,0.00026231390414500487,0.05850563890661414,0.027496154652489373,12,28,66,74,2
0.0005303523866734769,0.00024362264235897228,0.07562278928647237,0.033233815156434636,22,34,65,78,2
0.0007103890078446454,0.00025539659513760106,0.09445614912156532,0.03508714200781691,28,38,64,84,2
0.00012744255990324767,0.000815628288981871,0.0130278472952889,0.10293783202529062,22,22,74,62,3
0.00016981749904572876,0.0008966570654948201,0.014291477533323878,0.12283410765791666,20,22,71,65,3
0.00018966207323532617,0.001510749855436622,0.01898036792147883,0.17749399679280356,26,24,76,66,3
0.00022367682601067633,0.001885026556450016,0.024645908428597593,0.21863709905009354,22,30,72,69,3
0.00031335441068526066,0.0024522633698030494,0.03524058661098564,0.3056487313758843,22,30,69,68,3
0.0004022348691290325,0.002871799628536337,0.0437501327771459,0.36653752015456464,18,34,62,68,3
0.00041315511448939963,0.002935599863770346,0.04667205811271946,0.3877955098531115,22,32,52,66,3
0.0004086164045327789,0.003059607070781154,0.045057481859179446,0.4295230443471268,20,28,54,69,3
0.0003497314904374751,0.0027848451823479906,0.03703724076073253,0.3880468982706172,18,26,53,66,3
0.0003216888750685264,0.0028263440708587713,0.03412820520656299,0.41184440877837514,18,26,61,66,3
0.0002877583218386834,0.0026622241659321373,0.03252962732440519,0.4085042978999664,22,24,70,71,3
0.00028955343259426283,0.0024146107317101696,0.03154781594367836,0.3751553526278763,18,28,71,68,3
0.00032524985588699046,0.0027329966610013068,0.0364190332912435,0.4179330460332261,22,28,61,65,3
0.0003185176428149135,0.002459372785631128,0.034261586131549365,0.3444117766056137,18,26,58,66,3
0.00034506985121807827,0.002278682473590577,0.036562173308573975,0.3332342742275642,18,30,47,72,3
0.00033960834939582264,0.0024703078270264284,0.03992317955717614,0.37698205532283213,26,34,54,72,3
0.00031445828263780513,0.0021602152816768117,0.03741558732219505,0.35596708812044775,28,40,63,75,3
0.0003671644072926841,0.0022764074646974813,0.039767986390098785,0.3854949991275224,26,40,68,75,3
0.0003940952530742216,0.0024615254413956765,0.04142463086727457,0.403726549811269,24,36,66,72,3
0.00037193598486678095,0.0023050416792038553,0.040404611244208584,0.36580527252438905,26,40,67,70,3
0.00041213470225086643,0.002660309843627946,0.044682124093781035,0.4111066493843866,24,40,64,71,3
0.0003677930582415737,0.002947070471299011,0.04406775164542476,0.47870132241941027,28,38,61,69,3
0.0003267571015915314,0.002987672455592321,0.04177801038417478,0.46980627384489676,28,28,63,76,3
0.0003247113805193601,0.0031466822986028647,0.04372192456682343,0.4913046363721923,28,34,63,70,3
0.0003322576324717397,0.002855048868621559,0.0386653593865578,0.4459109806739246,24,34,69,76,3
0.0003791955562467287,0.0027674692915007687,0.0410017083592676,0.4071685166285126,24,30,68,78,3
0.0004340333939443166,0.002922061294909929,0.0436554359814884,0.4273326464677584,22,26,67,73,3
0.00044208851702814094,0.0029269220274807575,0.04242988947484674,0.40922665130650165,20,30,67,78,3
0.00039923311891600517,0.003005716362152187,0.0429731676380327,0.4298825807105223,20,32,68,65,3
0.00032637208005717607,0.0028463222036825843,0.03897610284626022,0.4120424701366354,22,30,73,73,3
0.0002919211315741477,0.002606177147007124,0.03844880845622592,0.3982272958385818,26,32,70,69,3
0.0002863317839331686,0.002937949554227054,0.03976864424060386,0.4501427966210678,28,32,65,64,3
0.00037458746810783777,0.003136984036223488,0.04080334663770319,0.43208254618562536,18,30,59,66,3
0.0003959001241432903,0.0032033405822640667,0.041495991965240536,0.43132724774833364,22,34,49,67,3
0.00034009261409307783,0.002748562855862219,0.037650748588384735,0.39764018566567283,22,28,56,77,3
0.0003297225707232655,0.0022811767334632036,0.03469525088489436,0.3536753745078049,24,36,59,75,3
0.00028187593663265827,0.002014224488958984,0.0319868340609549,0.3109265428839191,26,30,64,75,3
0.000247026965531537,0.00197928464222034,0.028053410213540894,0.28013175494011294,28,26,63,69,3
0.0002358908513817621,0.0017220853520747159,0.028887309599315146,0.2652240196000944,32,32,66,70,3
0.0012666579879807534,0.0019321998652201279,0.07834262018041623,0.21531148669391126,4,16,72,63,3
0.001304631124100444,0.0017229906187055395,0.07542649433025946,0.17086016566566775,4,12,62,68,3
0.0012848434958699147,0.0015875105428012771,0.07151521352820298,0.12884306593589287,4,14,56,61,3
8.062489913974335e-05,0.0008024848446398511,0.009100837717011773,0.08078430567838708,18,18,75,55,3
0.00012932901478865795,0.001092583255744215,0.012438848050865984,0.11011389513225417,10,18,69,58,3
0.00017115041390674973,0.0013914704142497254,0.01661699003890899,0.14411135217564372,16,24,68,65,3
0.00022814652960296875,0.0014160042247187527,0.022163249477122032,0.1749607019941125,22,34,63,70,3
0.0002568901854610586,0.001518119327074119,0.025983430656044457,0.195618012812733,30,28,61,73,3
0.0002971800503706868,0.0015774506859950197,0.028433137453110102,0.22641943694687822,26,28,64,76,3
2.5143687017503162e-05,0.00013679507858126356,0.0035581976611073584,0.014919473549184293,32,20,90,62,4
2.34436515847355e-05,0.00012578897094863632,0.003486622771926454,0.013707958427206695,32,20,94,64,4
2.4795870861749747e-05,8.731291693098938e-05,0.003419311598688165,0.01077423236485501,32,22,92,69,4
2.3085593310876977e-05,0.00010206668789414217,0.003592288476290532,0.012178335294499305,30,22,80,63,4
2.2322461463668842e-05,7.840934818917984e-05,0.0033244073309322245,0.009585510933535761,34,22,84,68,4
2.4698101837767545e-05,7.17138007790468e-05,0.0032944158313981237,0.009201978537957891,30,24,80,71,4
2.2270788660549734e-05,6.735906274554939e-05,0.0032225870927765003,0.008855820662670872,48,20,93,76,4
2.193413008821584e-05,4.6308850524499446e-05,0.0028790782439051693,0.006562638011022948,36,24,99,78,4
2.1370714563404846e-05,4.742628213063867e-05,0.0027773672756937267,0.006289796248620118,38,21,97,84,4
2.171185912527165e-05,4.780974788714144e-05,0.0027788255784622564,0.005752750885474334,28,14,94,88,4
2.2072745612279175e-05,4.365769876181567e-05,0.002819421772837317,0.005190755185713034,27,21,94,86,4
2.0573297421305586e-05,4.255145555503272e-05,0.002722674797244656,0.005573561830821766,30,22,96,83,4
2.228862638699013e-05,4.2303129531842444e-05,0.0028957810995158106,0.005908335584609984,32,36,90,73,4
2.3797021860782627e-05,4.1639927791677624e-05,0.0030432270055964074,0.006170216849615417,32,32,97,77,4
2.2034999769696334e-05,4.549660896392108e-05,0.0028585464340489834,0.006109853228289737,34,22,91,78,4
2.2161355142860927e-05,4.240803009782729e-05,0.0030017658232106333,0.0059321981918646115,34,32,95,82,4
2.0101727302348016e-05,4.155125369852378e-05,0.002950336132449774,0.005620663648858003,34,30,98,85,4
2.0681696561559494e-05,4.561164870204573e-05,0.0030484594203601403,0.005990580551931724,36,28,90,76,4
2.0407021184886957e-05,4.165489115155422e-05,0.0032983726565705375,0.005392349631644079,34,34,93,76,4
1.9660620636493067e-05,4.715005389642136e-05,0.00329696846798371,0.0054805567574475154,38,20,87,78,4
1.952891034386871e-05,4.884437556329399e-05,0.003415889500026389,0.005502576869458247,38,20,91,87,4
1.720962947087403e-05,4.5633435450094163e-05,0.0030713652490329275,0.004744367901832984,42,18,93,92,4
1.861149532920638e-05,4.4599986356829626e-05,0.0031765434276657093,0.00523078771392189,44,20,94,96,4
2.7075756857131195e-05,4.3181387860146424e-05,0.003539368140187959,0.005313331548515652,26,24,91,86,4
2.6855733909238808e-05,4.072347086980393e-05,0.0034640841229396373,0.00537415564660113,32,32,94,84,4
3.975269634918803e-05,4.264973997968106e-05,0.004137258268890509,0.005337729038045078,30,28,84,89,4
3.890076359982611e-05,4.773197727597766e-05,0.004108148655334034,0.0057104283875441236,34,25,92,82,4
3.536926924965818e-05,0.00014517005041596862,0.004389852315379715,0.010340461701285381,30,8,92,66,4
0.0001286664512924102,0.00023943766529507433,0.009060491301477668,0.018164197464609375,9,14,78,53,4
0.00012043607649704741,0.00026554961678037456,0.008726412068642211,0.020342690471065468,8,12,88,55,4
0.00012075731205516472,0.00022434308628750628,0.008450824689101556,0.020234620736892164,8,14,78,50,4
0.00011303810430057428,0.000218759615846156,0.007733964174288307,0.020997305671472732,6,12,80,55,4
4.139905341203859e-05,0.00013250333446149066,0.0036600811371362125,0.013872038182333676,18,16,85,66,4
4.390494075856455e-05,0.00012874227006100028,0.003584882767665023,0.013613702023192257,14,12,95,69,4
3.8907176581053184e-05,8.509487368871375e-05,0.003409732838764981,0.010404259407389227,16,16,97,67,4
3.699050480606332e-05,7.203871157068955e-05,0.003570457559277628,0.009157220629981264,15,18,99,66,4
2.2517100496054168e-05,8.027082631316327e-05,0.0032516863444968804,0.009831191303765734,26,14,110,64,4
2.861612191759256e-05,8.360553113915949e-05,0.0032075018655448595,0.009712524639318532,18,16,100,66,4
3.2196988009455785e-05,0.0001329015178024238,0.0034552095884156386,0.0122163431360515,22,10,101,64,4
3.204546628000243e-05,0.00016537844175735505,0.0032750380814402786,0.014647053638934796,20,8,103,67,4
2.5343926547358848e-05,0.00014968195190239274,0.003210741483363645,0.01265545721210664,28,6,99,58,4
2.6499388077665176e-05,0.000155215561556429,0.003206464087147824,0.012934802050801386,24,10,95,59,4
2.113557961182331e-05,9.082622218782558e-05,0.00300679440776785,0.010171334841096969,36,18,100,68,4
2.449032366490702e-05,5.996636948997728e-05,0.003205443576354936,0.008379283533150136,30,24,96,64,4
2.5951464564510128e-05,6.856564818412839e-05,0.003315771762153026,0.009319411345266395,30,24,104,66,4
2.3254042930002006e-05,6.54818421910237e-05,0.0034003679232426256,0.008334992247936771,28,20,102,67,4
2.3248839243773582e-05,6.721387939600073e-05,0.0033071578270715205,0.008663537679240121,28,14,99,67,4
1.866444364744296e-05,7.172251200645647e-05,0.0032313433222256435,0.008815709603409647,40,18,101,70,4
0.0003516751153375132,0.0008920091329947102,0.049691997554125615,0.11028637066523048,26,28,64,62,0
0.00035892699766092205,0.0008848155148753651,0.05005564222886864,0.10714107315875843,28,32,68,61,0
0.00034892588356298036,0.0008559325558587902,0.04847041689076468,0.09949792296506685,30,28,64,60,0
0.0003665594249450265,0.0008777592038289709,0.047762420965499944,0.0975881987134905,24,24,63,66,0
0.00038190733828844496,0.0008759963436311429,0.05038391786516517,0.10502708489896503,30,28,75,68,0
0.0004257432523712755,0.0008891689149662013,0.05116713559039548,0.10330136772957314,32,24,65,69,0
0.00040791232296867613,0.0009668699518775356,0.05201856900024317,0.11687055749635268,28,28,75,65,0
0.000418505186930114,0.0010857442731940687,0.04856775992675431,0.1265507547732455,30,26,74,61,0
0.00044933769550259216,0.0009998073420045446,0.05482607942486312,0.11788271351683305,26,28,73,64,0
0.00040268522130970625,0.0010206019172371303,0.047734800738349105,0.1174893774507622,30,28,69,57,0
0.0004092114433350677,0.0009566654733003863,0.051146053745036,0.1096477779995302,30,28,70,55,0
0.0003743985491938639,0.0009657048914720239,0.04832730603838161,0.10739003172416102,22,18,69,59,0
0.0004520592383155754,0.0009312987380311673,0.04605495923048048,0.1079747099614927,16,24,60,58,0
0.0004828762528319078,0.001219160161565725,0.05106800589858529,0.13537422800746587,18,20,66,54,0
0.00046925393179998736,0.001372805876558037,0.0512891370976287,0.14304455896729304,22,20,60,58,0
0.0005225614744478826,0.001507165442905907,0.05366340945140798,0.1533267229288153,20,28,56,66,0
0.0004050433051617787,0.001616678321004701,0.051081241099213005,0.16518330935532918,30,26,67,63,0
0.00041605495147100676,0.0015611711086437527,0.054827989548772486,0.15998497570971335,28,24,71,62,0
0.00038007413647681525,0.0014206219525552412,0.04860319401346333,0.15061988945958932,30,22,79,64,0
0.000430589551162029,0.0014446009898279562,0.05861402933383857,0.15381547892218608,24,20,75,63,0
0.0004321699836230507,0.001343999371075941,0.0594344275472393,0.15453655916815956,26,26,64,58,0
0.00046185716735880263,0.0011573668151799007,0.06064534919909331,0.1356155051565691,28,28,59,62,0
0.0005063197164836598,0.001187004139989598,0.06393515252951386,0.14349693143647374,26,28,61,59,0
0.00046634702166238677,0.0010822247830431634,0.06078854339137145,0.13001628892218678,28,22,65,61,0
0.00048243062693618374,0.0011599456842359807,0.06239890536102976,0.1324970700412742,26,26,74,68,0
0.0004143716217371899,0.0011233034952616717,0.06011306937334874,0.1390658189816795,32,30,74,68,0
0.00041597683405785124,0.0010149568726649542,0.05771902444446565,0.13240876282566708,28,24,74,73,0
0.00036941248460722214,0.0009037008764762169,0.05370947384682802,0.12495696308744796,34,26,70,75,0
0.00033917865167473277,0.0008178929383047019,0.04936350457939028,0.10750263229360318,34,24,63,65,0
0.0003190926878459967,0.0006738078940027167,0.045688321299261044,0.09043713953629268,32,20,66,68,0
0.00032368174484409193,0.0006898836924106052,0.045450910832549554,0.08273246842053004,36,20,70,62,0
0.00028232527712154125,0.0008655844416220187,0.040782731435486136,0.10067801315155993,28,22,67,61,0
0.0002510041178734143,0.0008186202067510716,0.03890257104604167,0.10252666297579963,26,22,77,68,0
0.0003023396816180076,0.0008473906163633938,0.04259349509105254,0.1028118679980141,24,20,75,68,0
0.000287969986869997,0.000917705922304961,0.04299488134398973,0.10400044224904896,28,18,77,62,0
0.0003126390189818782,0.0006995106275263707,0.045729768668406445,0.08724102907718366,26,26,80,69,0
0.00031468536907187976,0.0007172261893544532,0.042297287224011985,0.08918254975651697,20,22,72,66,0
0.0002783418012484186,0.0006909372627397213,0.03663141492983419,0.08609551761734899,30,22,70,67,0
0.00029252926166800956,0.0006328826955114733,0.035164442523138266,0.08147262236299375,22,32,71,68,0
0.00034089922144285573,0.0005501924171364923,0.04094378470870364,0.08131694048772221,22,34,65,71,0
0.0003109359258108239,0.0005501135877421115,0.04013933259255432,0.07619518451018757,20,32,69,71,0
0.00032723121996252393,0.0006396985780396464,0.04346302320697848,0.08200647530374573,20,28,66,70,0
0.00027745568875462497,0.0006842192693523734,0.0376102123371748,0.08432731865654199,20,28,73,72,0
0.00028247638551038044,0.000724991488419957,0.037267211650727224,0.08237178687766426,24,28,65,71,0
0.00032764551659948747,0.0006953653060582626,0.041848733224158954,0.07863679160104663,26,24,68,70,0
0.00035125873954942085,0.0007131617382644138,0.04198106090242698,0.08221549577429872,24,26,67,72,0
0.0003388992355038227,0.0006909904270108802,0.04470334246940092,0.08032568808279784,28,28,70,73,0
0.00034532573623018327,0.0007032384323821682,0.0418498791058811,0.0833786958054905,24,26,67,71,0
0.00030526753897655795,0.0007117603548151434,0.038320271560439406,0.08981196215552414,34,30,73,73,0
0.0003520771320364427,0.00048141826652240766,0.05172404528772933,0.06597587099872487,38,20,70,74,1
0.00035062899520051723,0.0005243105152399193,0.05003601498624864,0.07193205816255416,38,26,66,81,1
0.0003543772211298406,0.0004842111419914107,0.04791739833657981,0.06490989171493791,28,22,68,82,1
0.00036728647736761623,0.0004972187663935021,0.045582827759535115,0.06764996085544119,24,30,69,76,1
0.0003949165398635213,0.0004123987146758835,0.046192359063072716,0.05753790403750927,24,30,68,68,1
0.0003146946529816373,0.0005638260411527841,0.03975233666029633,0.07346884252731868,26,26,66,63,1
0.00032630926078449675,0.0004921264907334905,0.044568617365221656,0.06947288877329834,30,22,72,72,1
0.0002945274591606711,0.0005811644511390261,0.04072129258515232,0.07973972657022912,22,28,79,70,1
0.0003746924421801654,0.0006644398438211039,0.049148123652523926,0.08652261198265251,30,32,74,65,1
0.00046247137265923344,0.00056115634509597,0.048282564698168266,0.07109510463299144,22,28,78,63,1
0.00038239957998893097,0.0005139983439094082,0.03424064358457969,0.0637708662324614,14,26,91,56,1
0.00033506257694643806,0.0004932729649169904,0.028467946020652283,0.04991585062232594,10,20,71,56,1
9.467745116214569e-05,0.0004789629629915772,0.00906925985296157,0.04181209589546029,12,12,74,60,1
0.00015346820732110934,0.0006432517835402787,0.015292664667325876,0.055386550398031476,8,16,86,59,1
0.00019479651573363438,0.0008044517546083208,0.019259738017221487,0.08547499821191334,14,18,66,55,1
0.00024891320479510494,0.0008919497907436844,0.028741611417373605,0.10039740252519572,20,18,69,59,1
0.00040238001356513765,0.0009618903073716613,0.04869397379542692,0.10392121091643317,24,18,65,55,1
0.0005293111117251201,0.0010303957545061274,0.06604162309290915,0.1118710547802318,22,24,74,54,1
0.0006224109969558366,0.0008616210369883927,0.07987394983530066,0.0932386461795255,26,20,67,57,1
0.0006448580457833714,0.0008269118260197651,0.08483860862086454,0.09181694319286435,24,20,68,58,1
0.00058075278967767,0.0009273037254987199,0.07799239483822318,0.09832941223811414,26,18,68,63,1
0.0005274176161943045,0.0008760825454292917,0.06955799711568902,0.09226256381024558,28,16,67,60,1
0.0004666188852813861,0.0010737023261379833,0.06237744729313496,0.11461017402959377,32,16,75,60,1
0.0004543303610309264,0.0010430990276889226,0.05718669927071885,0.11474366373881398,20,20,71,68,1
0.000529654387307324,0.0009609675193206987,0.061367733271996426,0.11422471810092427,24,24,64,75,1
0.0005913239364071353,0.00091605449406881,0.07097992015394941,0.12423769260859116,20,26,64,80,1
0.0007066534249285953,0.0007968566927908679,0.08146226075769741,0.11647357638626792,26,32,64,85,1
0.0007093331038080794,0.0008749243610678955,0.09463553064284003,0.13011800428124307,26,24,73,80,1
0.0008083687857572243,0.0010147519345309393,0.10744907541100442,0.13899321328306574,24,30,74,72,1
0.0008009849283784247,0.000985650547402477,0.11003481722298246,0.13807290169241915,30,30,71,67,1
0.0010677340950843357,0.0010586061422557292,0.14197671314864885,0.1356394285996946,28,24,68,66,1
0.0009929709680837643,0.0010447099066706524,0.13904809594296907,0.1272409855539711,28,20,66,61,1
0.000870772328626859,0.000954587271129407,0.12852766611673053,0.12198080498882112,26,24,66,64,1
0.0009888970746909512,0.0009860103703139078,0.14110245179761408,0.13309153900310322,22,24,66,67,1
0.0007844376543685931,0.0010285698948171453,0.10421766535418985,0.13629096453682765,28,28,73,62,1
0.0007698579538044221,0.0010683559955796378,0.10225931332512696,0.14040053251223686,28,28,77,65,1
0.0009513937550935663,0.0010508256528922913,0.11670180734546741,0.1403082560409996,28,28,72,65,1
0.0008429810594248892,0.0010385041991483523,0.10145312777941683,0.13306191555798846,26,24,73,70,1
0.0008608852476377061,0.0010214743077845865,0.10449558016203099,0.1295025178517162,26,20,65,77,1
0.0009085745836334911,0.0009315716650577809,0.11890477587691332,0.12213950688182629,30,20,63,72,1
0.0007475117710774279,0.0009469084466754743,0.10542521468912441,0.12434261090368325,28,20,67,70,1
0.0007725987922207565,0.0008764817193782175,0.11003324146191593,0.11706373762230839,34,24,68,69,1
0.000738844295207542,0.0008327977304338209,0.10718679765166378,0.10480673114770461,30,24,71,66,1
0.0006713645630339983,0.0009084780995118184,0.0914704025842569,0.11250911373329106,32,22,78,69,1
0.0006286290928578518,0.0008646623515706196,0.08667709800205811,0.10435272330836398,30,28,74,70,1
0.000563545844678386,0.0008850352334629789,0.07751948998506868,0.10969383135623308,34,32,69,63,1
0.0006439755566327028,0.0008113299150301348,0.08899968255553518,0.1126040236933434,28,34,71,67,1
0.0006117490229506963,0.0007125333566658572,0.08094118330180797,0.1017402624181493,32,34,69,72,1
0.000563207492209939,0.0007086109506806365,0.0753413094425491,0.10263526174510906,26,34,74,71,1
0.0006999228133503239,0.00016744345618871024,0.12075811837073092,0.030433956989472488,36,40,82,84,2
0.0006097989204962947,0.00018181720227711275,0.11030973584606348,0.030342430479642035,38,44,82,82,2
0.0006222921725529485,0.00016561222629824884,0.11440309536000925,0.029777777366884414,44,34,81,86,2
0.0006520753485624577,0.00016298085819211718,0.12077386035683252,0.02842145785301323,42,40,84,87,2
0.0006610899243487207,0.00016786227457420426,0.11538933012948088,0.028778159594308614,44,40,82,84,2
0.0006479408168102504,0.00015381678935105542,0.11033373474121014,0.02759958510330774,44,50,76,85,2
0.0006342994707933965,0.00015568015718736805,0.10367037537046611,0.027935513416218583,40,46,80,84,2
0.0005982347058256549,0.0001533900313846895,0.09395452834713276,0.028443863066089564,40,48,85,83,2
0.0005649697194691815,0.0001593717719240128,0.09138440973089033,0.02762860691085229,36,40,82,81,2
0.0009756255843391611,0.00019159081163021955,0.09463810586608465,0.026039450736338593,22,28,69,82,2
0.0008877996920395685,0.00018608309908208265,0.07840745727341178,0.022505453570277542,16,24,65,74,2
0.0008199332898202157,0.00015783363655525799,0.06455891546789948,0.018552309534056947,10,18,61,80,2
0.0002548564093021595,8.373547049755747e-05,0.037432995998850443,0.012470451389294644,26,26,73,84,2
0.0003371162295336819,0.00011115047846580329,0.054099293954085255,0.02096869407168723,28,32,70,86,2
0.0006037839558701563,0.00016161135957695763,0.09915195159088173,0.02848207590645367,32,36,69,89,2
0.0009111243458120109,0.00021840091521691953,0.13727358747292398,0.038779446324527456,30,30,71,87,2
0.0011313674619666452,0.0002585535166945784,0.17809726248165345,0.04445277356587793,32,36,70,87,2
0.001300194089421319,0.00026879192878017077,0.20441596482907323,0.046606900153228284,38,40,68,83,2
0.0012892270465506347,0.00027570121055766163,0.2041293142184613,0.04827152469453642,44,48,71,80,2
0.001227831934414254,0.0002605070062409091,0.2081102452386317,0.04867296534155272,46,48,73,81,2
0.001090757596498456,0.00023595798424411223,0.19328026543458077,0.04788217807697494,40,50,81,88,2
0.0009809226268914565,0.00026615285383882427,0.18244593910113166,0.04945174113486037,44,44,81,87,2
0.0009363422261694873,0.0002422093448616957,0.16819672052074308,0.04577580376836374,38,40,82,83,2
0.0009715917890599694,0.0002630268437770972,0.16464770575388413,0.0449116414188667,46,38,81,77,2
0.0009505463291249464,0.00026858145036617637,0.16222403795458776,0.04464169478635106,40,38,80,82,2
0.0010536353187907729,0.0002279936932710675,0.16823706654109855,0.04031463074984766,38,40,81,77,2
0.0010508323855278688,0.00021331240125164,0.16843683345414148,0.039042955831581926,34,40,80,84,2
0.0009619475588587168,0.0001858095169850291,0.1587246987376572,0.03553106458952119,34,38,78,88,2
0.0009539911808327793,0.00017820478882601918,0.14606218578571284,0.034682732334739355,26,42,77,83,2
0.0009313148198776684,0.00019113750095408623,0.15338931969630984,0.035674957256632035,30,42,70,84,2
0.0009413305940283441,0.0001880041516472891,0.15140096183766033,0.03815977751355004,28,46,76,81,2
0.0009229147219253622,0.00018335149827220298,0.14507778451686715,0.03798252206573115,32,46,79,85,2
0.000930894205519322,0.00019470390748809602,0.1503168837278576,0.03707218838570063,36,50,81,90,2
0.0008018348958862415,0.0001669839920133558,0.12669004422918825,0.03275044573410931,32,44,86,93,2
0.0007085353372159072,0.00016069076215751097,0.11514867059545192,0.03140232706952706,30,44,86,91,2
0.0006957928659356835,0.00015912247708561468,0.11005475018545208,0.03153163307637059,20,42,91,87,2
0.0006125814064329447,0.0001527903549275185,0.09903797716752676,0.030842256481982022,30,44,81,85,2
0.0006395467840131999,0.00014851653714725282,0.10506730309429269,0.03140434646903802,40,50,83,85,2
0.0006844587606660458,0.00014336467421716538,0.10824738989780433,0.030465942205989582,40,44,76,89,2
0.0006805605396982006,0.00013332523854319453,0.1055472963634284,0.027034907872286806,34,48,70,94,2
0.0006170571475629191,0.00012858187385141712,0.10139605970701877,0.02610122903710994,40,48,72,94,2
0.0005804386418577577,0.0001159687655409305,0.09418511250903752,0.02412355848664663,36,54,76,92,2
0.0005369672078635466,0.00011656765038409032,0.09264266486212301,0.02264466884365442,36,48,81,87,2
0.000575270338920972,0.00011560345625161412,0.0909491642387668,0.02308455870840706,34,40,80,88,2
0.000542167938634357,0.00011213022946370551,0.09700191430163897,0.021831328530040273,42,40,80,87,2
0.0005467331454923215,0.00011282534741221982,0.09418450152447841,0.022168950516592904,36,42,78,91,2
0.0005460039948201166,0.00011301725921455048,0.09037518307984295,0.02180874460376006,38,38,76,95,2
0.0004609526949073507,0.00010705365285471707,0.07857206777933029,0.020336813478495287,40,40,81,92,2
0.00048820508230823875,0.00011211012886149729,0.07435871389935836,0.021219607133286477,30,40,85,91,2
0.00034056935743931945,0.0016001514175286126,0.03283493424038355,0.21767608131515517,22,26,63,71,3
0.00029610536333738813,0.001548378574702251,0.03118057703338921,0.21155435873212347,26,28,67,68,3
0.00034361187849133243,0.0016766293393332874,0.03342637630859201,0.22394788405525073,24,28,62,70,3
0.00031232184741557923,0.002009120848809429,0.03426879749481723,0.2787474051401508,26,28,61,68,3
0.0003032507013765035,0.0021314803738909454,0.03591597499583141,0.30682005353981756,28,30,63,65,3
0.00033375347941197957,0.0023580674179301845,0.038094288491096355,0.3385160488294484,22,32,64,61,3
0.0002992242384024464,0.0023378353895120436,0.035140259770675315,0.338286144241093,20,30,62,65,3
0.0003535224649328466,0.00225464839351972,0.03649159106144638,0.31743151400593744,20,24,56,68,3
0.00033435008922342934,0.002153747724774722,0.03242900467427375,0.31099440105372916,22,28,53,67,3
0.0003825099936007353,0.0018121133002605217,0.03102896893878959,0.23907833895430905,16,24,61,71,3
0.00033970200011150775,0.0014393108409756464,0.026634091205344247,0.17066432546860769,12,16,67,85,3
0.00024564287988904684,0.0007629314778963569,0.01769921070609899,0.0959774623671555,6,14,64,66,3
3.457434420132984e-05,0.00011647379955577743,0.004984842332986601,0.014224254657642077,31,20,84,77,3
4.1152612103864585e-05,0.00011266040336411558,0.004994078698765218,0.014325828333991066,32,22,85,72,3
4.1264696191227866e-05,9.500585482120842e-05,0.004776289418834257,0.013162770162056903,35,22,87,76,3
3.977694055342803e-05,0.00011392986590578578,0.004641063196047669,0.014930156197876347,28,18,95,68,3
4.0877694432267944e-05,0.00013990991994033576,0.004808847295966726,0.018071358590677756,32,26,94,65,3
3.561433520458048e-05,0.00018010662842731832,0.004893497897756659,0.020669369604635397,34,22,88,63,3
3.134241270869469e-05,0.00017379519399368722,0.004216956890691973,0.02072769701503169,34,24,89,66,3
3.0162600197205562e-05,0.00017478255627428934,0.004193606454287418,0.02026064111836308,34,18,90,72,3
3.075733762439547e-05,0.0001665544464213603,0.004052841183106657,0.018950190645817416,38,20,95,72,3
3.0532587165008046e-05,0.00015245743477968317,0.004003843144647929,0.019151348808528937,32,22,97,70,3
4.93407382048418e-05,0.0003577680696512738,0.0070997438828122395,0.043849547853005294,28,20,91,63,3
9.936015842773116e-05,0.0010344359464738982,0.012025577746727363,0.11208078215887536,18,20,76,44,3
0.0001765221962580204,0.0017005807864923356,0.01937800616263467,0.21204507380225077,20,22,66,53,3
0.00031263536999374703,0.0023763472310713305,0.03290724147212094,0.2998308630027371,18,26,55,64,3
0.00042575423936056184,0.0027167279692615082,0.041923935352273206,0.359015746536872,18,32,52,69,3
0.0005514572481225404,0.002740853993740065,0.05036407606196686,0.3768365638259315,18,32,47,68,3
0.0005868905577471386,0.002615763600150924,0.052369904379617006,0.3637789318060348,20,26,51,65,3
0.0005952121757592341,0.0025703520540215695,0.04879959175822487,0.35351471076012053,22,24,50,65,3
0.0005345516883789321,0.0024047257027053417,0.04306480761587212,0.31431176565098473,18,20,60,68,3
0.0003817848644342028,0.002074368713339706,0.033586795833788784,0.2762633904905187,18,20,62,69,3
0.0003150427123672723,0.0019472870943265923,0.02912948807479139,0.2369049759187662,20,24,74,73,3
0.000252214090736694,0.0015260257511097613,0.02460264174979073,0.1980177528466896,20,30,73,76,3
0.00018558089089345506,0.001312420692961621,0.02253015092981808,0.1824176462754538,26,26,71,78,3
0.0002135032861597165,0.0011435803607437167,0.02358965426225322,0.1706754588439741,22,34,67,84,3
0.00020227866390727547,0.0011263130748879382,0.022446181203295116,0.16152601785544057,22,28,72,83,3
0.00021445632192981142,0.001079781604397199,0.02347126962953877,0.15479421800750956,20,34,71,76,3
0.0002320390459012045,0.0012795185172515327,0.02304014218189864,0.17836061888608312,20,36,64,76,3
0.00020236519565633375,0.0014869413486675426,0.023354307062282843,0.1977683951290149,22,34,75,70,3
0.0002188229503308771,0.0014451743441998564,0.02569814630646485,0.2178592625943044,22,38,65,75,3
0.00022649983813340446,0.0016031358480747204,0.0265750473414537,0.24585951043743545,26,38,68,75,3
0.00021550318292046282,0.0013736046149181705,0.030139849222135494,0.23542148141290434,26,36,67,72,3
0.00021266288047963475,0.0012637180529757597,0.02736305925948618,0.2231471699460807,24,32,64,72,3
0.00021216593525486165,0.0012767323420726415,0.02698381826101031,0.21148237757048943,26,34,65,69,3
0.00020528324637261356,0.0011868690049011742,0.026186312064949695,0.19165429662518402,24,36,66,71,3
0.0001625407245863703,0.0010850828713410943,0.02173568116646771,0.18112548032575798,30,34,71,73,3
0.00015545217272283288,0.001139754006020326,0.021692559554101203,0.1820765842381457,30,30,72,72,3
0.00014157045607959427,0.0010266005642540802,0.020752276023564036,0.18357225311568126,30,42,75,75,3
6.85481170001404e-05,3.858169926676521e-05,0.008366613067706832,0.00464490190086642,20,30,67,87,4
5.76236327932554e-05,3.830564603379815e-05,0.00681442989315353,0.004630517605944768,16,26,68,78,4
6.669132549009664e-05,3.9045403350186025e-05,0.00800548332906195,0.004680614890520891,18,24,65,81,4
5.878164760677366e-05,4.380302790894059e-05,0.00759744620198744,0.005102532995927704,18,24,76,76,4
5.131116226928116e-05,4.386572435394247e-05,0.006543464247290561,0.005310015077123556,30,26,76,75,4
7.087784161338188e-05,4.1721886406950345e-05,0.008178369866252984,0.005253265987604511,16,20,72,83,4
5.4179358881562784e-05,3.979007595921995e-05,0.006387300420447849,0.005104801461190385,18,22,81,89,4
7.371794891896038e-05,3.804875881576869e-05,0.007415499678675037,0.005085698761176113,12,20,64,95,4
8.323490093319031e-05,2.942305085706437e-05,0.00962466939410387,0.00401049008748901,14,31,76,91,4
7.023704479652748e-05,3.471724378321654e-05,0.008244878810633745,0.004304847317092596,12,28,80,89,4
8.787774784827232e-05,3.468668860128558e-05,0.010436841851274265,0.0042948650363521385,18,34,77,85,4
7.152043690692812e-05,3.313396315820022e-05,0.008985141855744689,0.003979293140466134,20,26,76,84,4
6.570393830019513e-05,3.2263109943432084e-05,0.008218450505906949,0.003922092140112225,20,28,82,90,4
8.85560397416961e-05,3.0512787447658903e-05,0.009408970405789478,0.003865374051620044,20,32,71,89,4
8.303289602658175e-05,2.746058032025392e-05,0.009141294658523617,0.0038064537703433455,18,32,69,90,4
9.98054863498207e-05,2.5106298925340013e-05,0.010324936496824262,0.0036456892058196687,20,38,71,98,4
8.41919781132251e-05,2.6191965531053293e-05,0.010311381996816178,0.004056979376720207,20,30,73,97,4
9.080692300976969e-05,2.9091281311072943e-05,0.010583599316296226,0.0038563327329004192,20,30,69,87,4
0.00294581276735461,0.0002965105135406821,0.1651980721327676,0.01819992533590078,4,4,70,84,4
0.0035195018289223834,0.005516438191126039,0.19001078092655485,0.318088874070302,6,4,71,70,4
0.003449759134308432,0.005838002185542392,0.1855094681386962,0.3235501175437732,6,4,74,80,4
0.0008620961426331,0.00576741980064965,0.0490433916791699,0.3122201391560163,4,4,76,68,4
0.0007841804029313797,0.005384111439173771,0.04351109100868758,0.2972370295990325,3,3,71,59,4
9.656083236221845e-05,0.00023939171512934548,0.006441822772510055,0.02801732689561854,14,24,66,66,4
4.130843808742206e-05,0.00021640430382874245,0.00462138707478318,0.023260221937092034,20,26,77,62,4
4.293490750090854e-05,0.0002207434451143098,0.004463214351459692,0.022183465634453822,22,26,76,59,4
3.931112711489184e-05,0.0002050922702922162,0.004447985664618955,0.019012370337821886,22,30,92,56,4
3.1608307908655e-05,0.0002091240274168477,0.004020659552409576,0.01843918120044209,22,22,86,54,4
2.6431156335224546e-05,0.000205774215651152,0.003923164373746732,0.018886607230900854,30,24,91,56,4
3.230687092232424e-05,0.000189064602849434,0.004176459899608079,0.019438160079306852,20,24,91,59,4
2.9888920525114717e-05,0.00018757909943245156,0.00393506758665184,0.019917189743461683,24,20,92,67,4
3.228442429286755e-05,0.00021307446168726042,0.004163884634090911,0.0205374738725601,30,18,95,56,4
2.9091741344109073e-05,0.000181530574625136,0.004177001355466207,0.021058657367678837,34,20,94,60,4
2.5182853793324144e-05,0.00017046036507356032,0.004013340869612527,0.01987472906680046,34,26,97,65,4
2.617794725614008e-05,0.0001728183723477357,0.004102335784689985,0.020224641201438753,38,24,96,71,4
2.5612571472873185e-05,0.00015503537442171727,0.0037637935404873316,0.017644154545373734,32,22,87,66,4
2.7004780294623458e-05,0.0001512392143983552,0.0037512104240699767,0.016850654867819018,27,18,99,66,4
2.599756848236087e-05,0.0001419684859526832,0.003486716811166274,0.014622175529061011,32,16,98,75,4
2.6295113517924202e-05,0.00013755112212036005,0.00369690593371635,0.015478613515896276,36,14,101,70,4
3.2218364419521024e-05,0.00012896027016984275,0.0039675471200789755,0.014919899762731335,30,16,92,69,4
3.1809290162704065e-05,0.0001480800210523471,0.004257410284364139,0.017693507344270682,36,20,96,67,4
3.439033768528066e-05,0.0001517479201077978,0.004441443522465383,0.01791277112257505,38,20,99,64,4
3.455473034061239e-05,0.00012102210143336067,0.004389650952133155,0.016335146380778005,37,24,95,67,4
3.3878464430708176e-05,0.00011831164092369877,0.0040434633834585095,0.015212105291438294,34,20,94,66,4
3.329200970321273e-05,0.0001135644507533755,0.0038700211000208275,0.014598447680839606,38,16,95,71,4
3.7325595755455994e-05,0.0001081976326129569,0.004289151757397727,0.014294688735026057,24,16,89,70,4
3.804319295867165e-05,0.00011237764206849224,0.004149783994827105,0.014268615829475605,22,20,98,68,4
3.505605153174861e-05,0.00013950873691596306,0.0042618961654994365,0.01777526317094255,18,22,87,63,4
3.980489681091644e-05,0.0001200719924482892,0.004450797652905924,0.016570605469734715,26,24,84,69,4
0.0005208314703162085,0.0014092270755283612,0.07463180648665571,0.15533827942240486,14,16,72,72,0
0.0004870753901531487,0.001483564830528013,0.06700563440351229,0.16335520341100362,16,16,65,67,0
0.0004400230471772113,0.0012331505945147863,0.06279941346628809,0.14385932333268014,16,14,64,70,0
0.00050211284544737,0.0011778247809429096,0.07098723581308725,0.1316385207460711,16,16,63,64,0
0.0004913171446266151,0.0011018383774242498,0.06786686718369109,0.13210958850335852,12,12,64,63,0
0.0004612520579951226,0.0009682543143617676,0.0670476585813468,0.11486528341054557,16,18,70,73,0
0.0005100948594417078,0.0008359298561514177,0.07284835939067844,0.10666959685884461,18,22,73,74,0
0.00043465766681706665,0.0008958643933958315,0.06307239150494756,0.10717073190290495,20,20,75,78,0
0.00039311777910195066,0.0008185713877136068,0.06287234139739756,0.1007911665997548,24,26,77,71,0
0.0003851218825602842,0.000838061096921516,0.06274745744536214,0.10936542215289234,20,26,77,65,0
0.0003713503172303908,0.0008341809759508964,0.056735656460824166,0.10692947114814572,18,26,71,62,0
0.0004099691929164085,0.0007736022830031154,0.05532433866828459,0.09658023350060668,20,24,65,63,0
0.0003670186836666362,0.0007059452446493476,0.054113185506031725,0.09345416549420024,22,24,66,74,0
0.0003775593628319397,0.0005717925766570282,0.0543310252420791,0.08338825247525443,26,26,70,77,0
0.00032325809723724374,0.0006163479908238517,0.04620837979789277,0.08728097886082323,26,24,72,72,0
0.00036781076795864355,0.0007113101357251551,0.04759721656949096,0.09250334376038427,22,24,80,69,0
0.0003418182948689233,0.0006804547587353383,0.04717968689564733,0.08939263909391909,26,22,81,69,0
0.0003361902338481739,0.0007818068071175389,0.04843079268577047,0.09675019055198336,26,24,81,61,0
0.0003732901454618151,0.0007211892835242796,0.052191960679696725,0.09286566513300147,28,26,79,70,0
0.0003762563522623685,0.0008075339689240796,0.052335991327006295,0.09399164720501148,28,28,82,70,0
0.0003440008643252347,0.0007822152441346749,0.05405293665288592,0.09675639386195295,26,20,79,75,0
0.0003410715821669645,0.0008008992530827647,0.05176546373231408,0.09809397473465939,30,28,80,77,0
0.00033797757893211345,0.0008376801614444964,0.0518458743476578,0.10436687671120773,30,24,76,72,0
0.00038536560510452197,0.0007851839964718667,0.055381884293009526,0.10484212088383187,26,24,71,71,0
0.000644278803301871,0.0010103211857887754,0.08085151096026762,0.12616553235523734,28,20,55,68,1
0.0005684134845191079,0.0008385912443029465,0.07028364131686438,0.12219320263297342,42,10,55,74,1
0.000561006621842336,0.0007846942051844384,0.062983991172276,0.11625522715960791,36,16,51,78,1
0.0005416475472154665,0.0008606080147872523,0.058361325135177146,0.11985348586722833,30,14,58,76,1
0.0005024248775813268,0.0007887447305987465,0.06129022610132147,0.11336867326000703,26,18,65,73,1
0.0004955281397837478,0.0007275232685409698,0.06168354951104776,0.10354369071731095,12,20,73,74,1
0.00043422665522853453,0.0007108920287299184,0.057986621596359214,0.1016735719325331,4,26,68,77,1
0.0004536363515395798,0.0006530662697885172,0.06212460176239083,0.09534032201577296,12,24,73,80,1
0.0004286375236646517,0.0006378572789628399,0.05699262562187942,0.09420787923030903,18,26,71,76,1
0.0004129911059672937,0.0006959772367609431,0.05688668654209667,0.09384448513608303,20,24,63,71,1
0.00043217385075723945,0.0006340169214583566,0.060923925047678996,0.08962281494539019,26,24,60,70,1
0.0003866978729740659,0.0006592651875653963,0.05195809643354377,0.0886074905984688,28,30,59,65,1
0.00043451709957233956,0.0006325716730965953,0.056432889385428044,0.08084591488549145,28,30,67,66,1
0.00044674628048475243,0.0008073526035529361,0.054345918853618315,0.09223381097686612,32,24,67,74,1
0.0004115085140627486,0.0007344805827153285,0.04980121795827578,0.0912409748601967,26,20,72,69,1
0.00043603221071783477,0.0007484006865744284,0.050890219205390226,0.10381328649401879,26,14,73,68,1
0.00038173540432066627,0.0009573160779150962,0.047929997960475784,0.11974062744552685,32,20,73,67,1
0.00039164275368439104,0.0007914389089047774,0.047663181839233716,0.09838104402059746,28,20,77,67,1
0.000331112707808515,0.0007788823499716549,0.04760466731788485,0.10831776078122088,22,24,83,70,1
0.0003524728759918918,0.0006433575540799158,0.04888160411486603,0.08762426845198977,22,22,85,77,1
0.0003467463242693359,0.0005352951995465722,0.04569742651537517,0.08017960861089277,18,28,84,79,1
0.00037429580305620733,0.0005329595163859317,0.05108192618277233,0.07454255198269392,16,30,78,77,1
0.00037308400636258785,0.0005611353386302173,0.05001825087654346,0.0748402655581065,20,30,72,78,1
0.0003837379154488183,0.0005277564718594195,0.05320340213482458,0.06750238711127006,16,20,65,80,1
0.000923992535419547,0.00023577133813801234,0.12304650920755707,0.035479764063747046,20,34,66,84,2
0.0009338138580906929,0.00023271152510988488,0.12502165435084645,0.03360088303656692,25,20,70,89,2
0.0008902382422889291,0.0002210487339165966,0.13231167802153582,0.03178852977443893,20,22,72,91,2
0.0008395156389537698,0.000239431217707788,0.1334846561870683,0.03419684766309242,20,16,77,85,2
0.0007711319003914025,0.00023956432656593982,0.12066885598015849,0.036735643618393106,24,16,79,85,2
0.0006798088970440966,0.0002394920542541239,0.12127078212700682,0.03744028272497672,22,16,82,75,2
0.0007304687287877082,0.0001890518632287841,0.11941677743155996,0.03539668883303902,22,12,80,84,2
0.0006946648178650973,0.0002031852395708661,0.11599837587978322,0.03479326929759847,16,14,88,83,2
0.0007069298897674776,0.00017133525172488461,0.11483660309216963,0.031141708896329882,20,10,78,83,2
0.0006791006178938579,0.00016634218766942128,0.11318674963010464,0.030773968100038362,22,10,78,85,2
0.000589896286588878,0.00017585676807703465,0.1037884342801491,0.03152988611895576,24,12,86,85,2
0.0006340310797113484,0.0001680608252485398,0.1084518719884375,0.028170285471323726,14,12,80,86,2
0.00061560673167822,0.00016973448234946045,0.10446197041734166,0.02787578031856045,16,14,79,88,2
0.0006577909837582256,0.0001721591612250312,0.10364759455227013,0.028224811247297105,16,12,74,91,2
0.0006111680549609235,0.0001522297648703361,0.10220828136284418,0.025824825098035853,18,20,74,92,2
0.0006599696377864103,0.00017820565053871336,0.10385395456687646,0.027764610730225927,28,14,71,91,2
0.0006559862156309626,0.00017529638820304466,0.10690621836246779,0.027992488202286957,16,22,67,94,2
0.000633114774989772,0.0001662653336143486,0.10404251066467234,0.027448557905395677,10,18,71,94,2
0.0006688931947111884,0.0001785088162876358,0.11231876719575837,0.03004553162289552,14,14,74,90,2
0.0006198610776832806,0.00017487648267926423,0.10997794469527143,0.030374869056855804,14,16,77,87,2
0.0007250934156543363,0.00017059979569393285,0.11635884031075362,0.029908649914300898,16,15,73,88,2
0.0007728509774086557,0.00016709200884920748,0.13098653074865457,0.029446594001191102,16,24,77,90,2
0.000725540650601376,0.00017288096948208265,0.12659449854483598,0.029112966076621612,26,22,80,87,2
0.0007380788790944567,0.00016187631867347685,0.12520567263092486,0.028253070149325276,22,22,79,85,2
0.00034809595537827013,0.001798540798005872,0.033083478965812194,0.2660885727458156,22,22,59,67,3
0.0002999450179414232,0.0018411411122393237,0.029546999833704832,0.26512376905919843,20,22,67,69,3
0.000255376963415116,0.001545662273700956,0.026064413438348408,0.22319532121809313,26,24,73,71,3
0.0002678853176377442,0.0014045220745240463,0.027976650073080877,0.20782162671710927,22,30,71,66,3
0.00024459623514380284,0.0011797438165262108,0.025602015317734258,0.178764486510523,22,30,69,63,3
0.0002665148702102346,0.0012141236384467006,0.026976454580602386,0.18563193402572628,18,34,66,65,3
0.00032894913785740234,0.0014142596959384449,0.03366397113528462,0.21819751901888892,22,32,57,68,3
0.0002935225124983414,0.0015192645782161,0.031066183122357174,0.20845688891403902,20,28,58,63,3
0.000286675992040158,0.0014275938709680715,0.030545512665657765,0.20107732067674952,18,26,62,62,3
0.00032322001537607664,0.0013471806932599981,0.033300198633889055,0.19695420162612534,18,26,58,68,3
0.00028067550407843533,0.0012432574749561892,0.02963661498252654,0.19633413949851578,22,24,63,70,3
0.0003242410539229987,0.0014030467654547265,0.033306435764309354,0.22383407278227618,18,28,63,71,3
0.0003767684672089747,0.0015967388466788129,0.038046363583685246,0.25279007443338897,22,28,55,71,3
0.00036843122651229266,0.001687222751833907,0.03962890322929967,0.2491322286451286,18,26,58,65,3
0.00038296549074173347,0.001631062877435363,0.041198180367557846,0.24508697427489953,18,30,55,67,3
0.0003401209508289862,0.001637247849971896,0.039354292220691305,0.23956365772520724,26,34,61,68,3
0.00028380404911591893,0.0015663609266161327,0.03465549955525866,0.22551338982088356,28,40,61,68,3
0.0002768505838221737,0.0015804407433860793,0.03186995811401296,0.22862144097915196,26,40,60,74,3
0.0002634727689819993,0.0014877030734244357,0.03185807835184784,0.232886099316307,24,36,64,71,3
0.0002797188027647818,0.001552839051273604,0.032370588021264135,0.23508381429179517,26,40,73,74,3
0.00029672736264712527,0.0015736325227684123,0.032221777416201115,0.23481410620947857,24,40,72,74,3
0.00031678904009912865,0.0016286104801635096,0.034072929397555685,0.2494550625569903,28,38,60,71,3
0.000327354712903172,0.0015677942445330845,0.03329333753837217,0.2426187231084669,28,28,61,79,3
0.00032791297546400615,0.0015385201144358957,0.032327860080780015,0.22985635633757742,28,34,62,68,3
1.771517490219049e-05,6.373832452887153e-05,0.0030603421073234754,0.008515146622460053,32,20,100,70,4
1.8608973475967055e-05,7.057173010985927e-05,0.0030826194958842126,0.008379679363982961,32,20,102,80,4
1.9925582788956864e-05,6.655831129519139e-05,0.003101617815039383,0.007738702655314972,32,22,104,78,4
2.250003427230712e-05,6.238918787387117e-05,0.003124557507045651,0.006904611528820608,30,22,105,81,4
2.4287923809774053e-05,6.990334554053337e-05,0.0030831998938412692,0.00790400431498511,34,22,107,72,4
2.0218299492588548e-05,6.119633457331625e-05,0.003035947856612834,0.00742152703915149,30,24,107,73,4
1.8327091879806097e-05,5.555295633742986e-05,0.0030618720757339102,0.007140149897149337,48,20,110,79,4
1.8586353349245345e-05,7.047563484302946e-05,0.0028836666983930795,0.008256705632885126,36,24,103,76,4
1.892617274762942e-05,6.340923818230697e-05,0.002834823154260488,0.007416724860851011,38,21,112,78,4
2.3144441234529163e-05,6.602255057965737e-05,0.0028041634073100747,0.007858640472609969,28,14,96,76,4
0.0003534595350365806,0.00018823202631922692,0.02060479347820581,0.01845805501163979,27,21,67,55,4
0.00039211071802360627,0.00024210584226690027,0.0239766625455879,0.026130764767776593,30,22,68,64,4
0.0008706077422816903,0.0003032603476161131,0.049218743942012214,0.030355447264799062,32,36,78,61,4
0.0008809446923016329,0.0003001190559826003,0.049061392316450965,0.03012561272192911,32,32,61,59,4
0.0007121851973172683,0.00040590725548442474,0.03906804144187272,0.026307360438163372,34,22,58,52,4
0.00017480714230856326,0.0002576915254052959,0.010256152695812799,0.01613054300413336,34,32,56,49,4
0.00017873252236571486,0.0002226503730780271,0.010895231101688819,0.012667185448477667,34,30,59,48,4
0.0001885640291736974,0.0002111659602768013,0.011892994228162663,0.012130846635441849,36,28,60,60,4
6.266099389655102e-05,6.017978288171648e-05,0.007210528809953095,0.005088752345527438,34,34,73,79,4
7.766792423283644e-05,5.1214940333499185e-05,0.008846650531772457,0.004978465422038027,38,20,71,79,4
7.371504751842123e-05,4.132093933344577e-05,0.009072754350746436,0.004749982036277093,38,20,81,86,4
8.087480112030831e-05,3.179899510502184e-05,0.009743319170822915,0.004618385716204809,42,18,77,89,4
7.398791586081237e-05,3.33028541477648e-05,0.009343772728954756,0.004396346300718278,44,20,83,87,4
6.979395779876764e-05,2.93947535080679e-05,0.008660542052383495,0.004092704438916055,26,24,80,89,4
