f1ch1,f1ch2,f2ch1,f2ch2,f3ch1,f3ch2,f4ch1,f4ch2,Category
0.001883266429185491,0.001244996130109141,0.07740033820576177,0.16750302977719167,9,32,50,64,0
0.0013519258544001024,0.001170493400608752,0.06552217548482288,0.15548785028756776,14,26,59,66,0
0.0008248955771442144,0.0010026722205973794,0.05015722080797628,0.13629708847385885,18,30,61,66,0
0.0007692344953378707,0.0009820216063097021,0.049798978910611476,0.12667131242274812,20,30,61,59,0
0.0005924181807639414,0.000972501941405124,0.04819810078898432,0.13431197407069265,20,30,65,60,0
0.0004700949824103549,0.0009883615415228796,0.04520596505033832,0.1360954146560373,24,28,64,60,0
0.00042658919964200253,0.0011251254853320263,0.048726781367429466,0.15905059482552575,28,30,63,62,0
0.0003626814489279852,0.0011060723172245505,0.042448999212234675,0.1600834114970197,30,28,62,59,0
0.0003489440386316107,0.0011171250241204808,0.04163179235166926,0.15732878668391867,30,30,63,60,0
0.0003084418830796565,0.0010715007484953598,0.04021588195445128,0.15298598909386127,26,34,69,57,0
0.00028599123475273763,0.0009706126846431593,0.03677271792512621,0.13573657362955135,28,30,65,60,0
0.0002838478099388687,0.0009920848566413825,0.03536461423047105,0.14199678868148785,24,32,69,60,0
0.00028127684196884497,0.0008504800375815729,0.03418788809863543,0.12520086607183922,24,34,70,62,0
0.00029584849676755453,0.0008558734341867894,0.032732578839796335,0.12290575626353357,22,28,71,63,0
0.0002766443457250368,0.000959994853886002,0.03381034217249058,0.135440668621986,26,28,71,58,0
0.00028305917867674316,0.0009315949737663104,0.03342908565667164,0.12785707687791664,22,28,65,58,0
0.00029602664286726226,0.0011221842037737201,0.03494134165403178,0.13895835220950808,22,26,62,56,0
0.00028458492588505645,0.0011457748433649447,0.03555075650955443,0.14631222373312475,20,30,67,55,0
0.0002563375870794805,0.0010297063315464268,0.03314566638560179,0.1316741104648914,24,28,72,57,0
0.0002977170068635404,0.0010879295263811972,0.03555420091586721,0.12555719379833838,28,26,71,61,0
0.00025757801187326507,0.0008640861177191738,0.033279221775671865,0.11406391610048414,28,26,71,71,0
0.00028861755323729914,0.000877391387992612,0.03610537530392244,0.11561211998369411,32,26,62,74,0
0.000282166902398379,0.0008526697928693345,0.036957933104628284,0.11847190718208948,38,24,66,74,0
0.00023375914040913695,0.0008216788187479346,0.032542868061108884,0.12527944900367827,38,30,68,74,0
0.00021848788184697547,0.0009122704441606136,0.02922960953075091,0.12990069762153467,32,32,68,66,0
0.00017736736553077475,0.0008971655346484191,0.024257956569424453,0.12290977247394072,32,24,71,70,0
0.0001893687859822762,0.0008243891035985115,0.026321259508180518,0.11523712762114784,34,26,67,70,0
0.00021724060747796672,0.0009167679854780209,0.028049096447184303,0.11584411839042348,34,32,73,63,0
0.0002070469737839575,0.0007813850661418438,0.02847980731802088,0.10727616135293395,38,32,71,72,0
0.00023985496507828146,0.0007179963533999339,0.03094508927118302,0.1101761673879274,46,30,73,70,0
0.00020140051091697752,0.0007813544201037622,0.026684438120993376,0.11113524830675828,34,30,79,62,0
0.0002047101678868594,0.0007731719674234797,0.02736590129414407,0.11211381729713348,24,28,76,68,0
0.00020960800182415705,0.0007787966138140504,0.027919359519207886,0.11180287946449188,26,28,74,64,0
0.00019243879131982996,0.000787492006829215,0.027683172576896606,0.10903409220092566,36,32,75,63,0
0.0001957081316131023,0.000756481478494818,0.025444314551447956,0.1069220084308336,38,36,67,67,0
0.00019531443938389234,0.0006965473016217116,0.024129985034383756,0.10209513580785719,34,34,70,66,0
0.00018576964907059717,0.0007625370319678512,0.025376918000029253,0.1013314850777691,38,38,66,68,0
0.0001712986209934044,0.0006357842134355039,0.024146864997730035,0.08700095044545388,38,30,74,66,0
0.00017372212148710338,0.0005905332804300209,0.024490907226876052,0.07812355399277353,32,26,68,62,0
0.016912468718363893,0.0011496200102706475,0.9529475102315568,0.09265635137152088,4,10,70,64,0
0.017340418600961832,0.0011084096818447728,0.9446292286294816,0.07731838109978637,4,4,64,63,0
0.01685852985503987,0.0011499802550384375,0.9124604200791157,0.08300432266971233,4,6,52,52,0
0.0002050660664749253,0.0005875563476477389,0.0171980893936551,0.06410928027374871,14,18,66,45,0
0.0002449404330086756,0.0009089090771888904,0.025946840389981293,0.1049881983379062,20,20,69,43,0
0.0005743002775009043,0.001176493109515305,0.04378497376523276,0.136326104612246,6,24,69,52,0
0.000729111744952833,0.001316608257662312,0.05073897858321273,0.15783082100276538,8,26,74,59,0
0.0007504860141706707,0.0011430646365111197,0.05416893307909561,0.14926613037563644,8,30,75,67,0
0.0008387194682551455,0.0009435734078063083,0.05605323488931156,0.13132954443685704,10,30,66,70,0
0.0009495903860792575,0.0007886957424526588,0.12949840770737456,0.10662319818175822,30,26,67,78,1
0.0008624280048634852,0.000832118532528649,0.11727183814256645,0.10630990758332647,26,18,70,78,1
0.0009573114409303213,0.0009302961162228682,0.12460852370833625,0.11502977524919242,24,24,70,69,1
0.0009240094468887987,0.0008645764245993375,0.1195782416776654,0.10952403188068338,28,28,69,62,1
0.0008975987312460384,0.0008399670906186901,0.1309024797017542,0.1119711255599429,34,32,68,62,1
0.0009292793614243375,0.0007717057709782194,0.13824236613776222,0.10613116664772043,38,36,69,65,1
0.0008914299612037328,0.0006751878915246878,0.1295087301230228,0.09076052313552044,32,38,70,71,1
0.0009793935399358517,0.0006282125278305069,0.14092922396319812,0.08509969914717873,36,30,68,72,1
0.000952946979333466,0.0006370876573673566,0.1287616778363308,0.08456085741095055,30,32,68,74,1
0.0008666019449944225,0.0007064739482451645,0.12295253425792103,0.08470404628913727,28,32,68,65,1
0.0008117913783093191,0.000745757975008947,0.12472663958465537,0.08856723947629841,34,24,69,70,1
0.0006634771685647071,0.0007160435767071254,0.10657173057232613,0.08809267001699699,40,26,77,78,1
0.0006913776122844281,0.0006817648095781921,0.1064638138933604,0.08244713933145542,38,28,76,75,1
0.0007726910008804156,0.00062180465024664,0.10363689362570305,0.08546043178195313,34,26,71,76,1
0.0007846762687973617,0.0005756357408205986,0.10087685098503182,0.08500324906296353,34,28,70,71,1
0.0008671563355976828,0.000624055103514137,0.11075049139766373,0.08736048828702167,26,36,69,63,1
0.0009762811980338384,0.0006142708573410939,0.11573725322437166,0.09014284794256638,26,34,67,66,1
0.0008648261345228566,0.0005889609188336955,0.10904451978231612,0.08241408641992204,24,38,71,74,1
0.0008402789500875711,0.0006298621611498746,0.1040048568676368,0.08354386914765649,28,36,67,76,1
0.0008351757296145956,0.0006221865298547183,0.10105335230169696,0.08240587896039786,26,32,71,74,1
0.0007357288603930142,0.0006744006421061616,0.09994728795770978,0.08181722750439906,26,28,73,75,1
0.0007929881737946813,0.0007139636377374567,0.11242832874401551,0.07995595440868729,32,22,67,65,1
0.000786098054248648,0.0006856160771080307,0.11444189847041294,0.07919914960483655,32,20,77,62,1
0.0007288448719161614,0.0007283293303904817,0.1082707314310245,0.08308594481346401,34,22,73,61,1
0.0007301459055296606,0.0006894736767782717,0.1034252774414549,0.07607694684733993,34,16,74,64,1
0.0006487273363576532,0.0006603158879963892,0.08770994388496783,0.075221388811819,32,22,68,64,1
0.0005589178077710283,0.000528584342988975,0.07079844936575568,0.058226716323570064,28,18,67,67,1
0.000431976193367118,0.00037893168385858754,0.05165211909261212,0.03789509855827173,34,20,64,62,1
0.00030289459481970245,0.00025705148613226455,0.029864238033503427,0.025531560072507987,22,22,62,60,1
0.0002320854015125565,0.00017581009535020932,0.017417757349794446,0.015700679740301527,18,22,51,53,1
0.0002213243127459674,0.00019821179644550666,0.014759868537088758,0.015637714372213406,14,22,61,54,1
0.00019778398567498726,0.00023979861930544156,0.012943811030763138,0.018712643320925735,10,16,67,48,1
0.00023222749463115518,0.0002670524788230371,0.01583039153053459,0.020210411163534687,12,16,65,50,1
0.00020967226977993802,0.000332462063870552,0.016599677403991656,0.022868092893676313,18,16,71,52,1
0.00024571311327679923,0.0002832049758857205,0.016073222313551655,0.018875991292812238,20,14,57,55,1
0.0002188162863398473,0.00024142831998053425,0.015221350048975341,0.018203460688148133,14,20,60,56,1
0.00017552263885861814,0.00024007993156226838,0.011838595282835216,0.016415957098323705,14,18,68,54,1
0.00015139829831468338,0.00015601605822719475,0.010099196494722098,0.0121635732093418,9,12,72,64,1
9.142631241010775e-05,0.00018213400933662682,0.00804918643734213,0.013319233814138735,16,14,80,66,1
0.0006093626395141595,0.000493374443844116,0.03498408918258631,0.030499975786730176,4,4,65,67,1
0.0006209914764232489,0.0005099373325665198,0.03466067489750767,0.03170165895700619,4,8,67,51,1
0.0006083747894453377,0.0004985471563774259,0.032626447414465264,0.03079869386124388,4,4,64,48,1
9.841272021222694e-05,0.0001322722456015976,0.005392684672437414,0.009681949806543732,12,17,71,64,1
0.00011119445629482081,0.00010616004642989034,0.00525849135356118,0.008474937580406258,16,16,62,68,1
9.513581435456316e-05,9.183060986459994e-05,0.004880789909802184,0.00794391362173299,12,23,65,77,1
8.434620103894131e-05,0.0001076814485334539,0.004743260972962558,0.008853311381897272,10,20,74,75,1
0.00012828497652542304,0.00012809759639509022,0.007901891811973826,0.011911847505349783,16,20,69,70,1
0.00021755124722731175,0.0001881484726976125,0.01462226238816774,0.01888408934210795,8,14,72,63,1
0.0011629258131811335,0.0006081629230610683,0.1336151254266072,0.06360134441817433,34,18,59,61,2
0.001068047277491971,0.0005967989479854951,0.12760134198817535,0.06265725472135164,24,14,60,54,2
0.0010169284589189658,0.0005497582132317412,0.12617368753565555,0.06186339053530078,22,26,66,65,2
0.0009131826561036183,0.0005868193974398868,0.12079087859930943,0.06217572834007303,36,18,70,61,2
0.0011387431088727732,0.0005203666507992488,0.1245791614208727,0.057222162446464636,22,24,65,58,2
0.0009233420250475243,0.0005102519352076958,0.11377810406297612,0.05717905092445251,30,24,71,59,2
0.0008390890573848274,0.0005348997657193221,0.10905983352742375,0.057548892736945675,34,24,74,54,2
0.0008621984735050267,0.0005312991349316213,0.10710130292127847,0.06156166335155525,28,30,65,62,2
0.0007759044028254204,0.0006767866325480726,0.10683129437825982,0.07111876096769977,38,20,64,55,2
0.0008571196321308312,0.0007162087214775023,0.12228891759073779,0.0738644594033625,46,24,65,58,2
0.0008470139202925452,0.0006888554569443844,0.11719239354995133,0.06651399662326364,40,20,67,59,2
0.000825157058744689,0.0006503784612606274,0.11294845820174941,0.06367790392667622,36,20,69,57,2
0.0008854614319970227,0.0005144784136022558,0.11450048974338922,0.05128656609663658,30,16,69,65,2
0.0008161079598015339,0.00046623744620503726,0.1013518868362142,0.04752665697653881,26,22,69,66,2
0.0008752736394353055,0.00042864304166277374,0.1006835258257841,0.04610179153111231,32,26,75,63,2
0.0009244936254625111,0.00043858785158674404,0.10724820394360746,0.044331074496845625,30,32,76,63,2
0.0007911083854120774,0.0004651570014513577,0.09741522495018848,0.04751751424636111,32,22,76,62,2
0.0008883056683607466,0.0004627295343431706,0.1089325972634119,0.05234875724080896,38,22,68,64,2
0.0008482268280847789,0.00045921635233993785,0.10566198505878567,0.05047505331114432,34,24,61,64,2
0.0008356379939997888,0.000518252941334069,0.10520863726410445,0.0546332167575084,32,24,57,55,2
0.0007839198822451682,0.0005476761340048716,0.1017249546305948,0.05444544180961319,34,22,61,56,2
0.0007533914417097935,0.000529536905383743,0.09084503068274144,0.05125436087894732,28,22,69,58,2
0.0007133332965992561,0.0005502465481031166,0.09281056880979173,0.05838624912559959,30,26,69,57,2
0.0007654606579524044,0.0005621838991093737,0.09635268483536942,0.05343820348692331,28,24,72,62,2
0.0008544618958346478,0.0006288686389864705,0.10486023428771028,0.06170429424985313,32,24,68,59,2
0.0008185053499873157,0.0006250075673858822,0.10189530538683379,0.06545528258092194,38,26,65,56,2
0.0008497195571647495,0.0006696925261075312,0.10226855258194367,0.06808646909261853,34,25,65,62,2
0.0009091866289191519,0.000713251659680652,0.10093335545856384,0.07337139834764479,32,18,68,57,2
0.0007844819630472783,0.0006391183511060075,0.09116467900582288,0.06659740956731296,28,20,64,56,2
0.0009950801856071852,0.0006369735599669177,0.10063980780295077,0.06146547503736258,26,14,70,53,2
0.0008966743777612895,0.0005551462883895054,0.09986561494951449,0.058405880200297675,32,24,67,60,2
0.0008916136264070971,0.0005344153956140571,0.09800743216179346,0.06132583044139843,32,28,63,63,2
0.0009072569473733477,0.0005934421812118662,0.10003049454213044,0.06682253350430079,28,22,64,53,2
0.0009701844222601838,0.0007088901545323005,0.09722742093608774,0.07404985337535182,20,22,55,59,2
0.000984671232678277,0.0008003613471043373,0.09653068321929376,0.08084121570768427,26,18,55,55,2
0.001049476588899521,0.0008294238838214492,0.10080597274860378,0.08063724705272929,26,16,62,54,2
0.0010027659175116323,0.0008616255669019891,0.10549285463334915,0.08127384778386806,24,14,68,56,2
0.0009372187159964051,0.0007549209811051692,0.10756952545924192,0.0753875784157541,26,12,62,48,2
0.0009599365781273823,0.0007151305861503517,0.11239751805089994,0.07387188644731059,24,12,67,54,2
0.0008725307064353679,0.0006966696887416357,0.10788366347919545,0.07201719377268818,28,16,75,57,2
0.000784950450487084,0.0006745187494680885,0.10112612676400451,0.06841472923067125,30,20,77,62,2
0.0009463542876233205,0.0006464224052897482,0.11715158882328608,0.06581639093512082,30,22,76,64,2
0.000938249880851885,0.0005754525653276587,0.11424421196132706,0.057045855687150766,24,28,74,60,2
0.0011548021451249012,0.0005862509336968711,0.1445064215243137,0.0542379685547004,30,24,69,59,2
0.0013077256638830206,0.0005242175224876931,0.16290125590997107,0.05037283489801443,32,26,60,58,2
0.0013145786355911176,0.000584207347748245,0.16652201155663982,0.05215527327975531,28,24,57,53,2
0.0013396159007690494,0.0007745566746930788,0.17822023194620565,0.06375683589201711,30,16,60,50,2
0.0014414509324966027,0.0007911447755428532,0.17896460072930803,0.068351648471553,26,16,58,56,2
0.0002568538699199824,0.0009171401456575624,0.033903369233195875,0.13911621476279376,40,34,71,82,3
0.00026577508906907416,0.0008536678153824173,0.03220986657152565,0.13371455017069922,34,34,65,75,3
0.0002224389459561639,0.0007472355975334101,0.030545798841961503,0.11970757285596961,34,34,70,71,3
0.00023523772365697238,0.0007795070282086693,0.029301759823219486,0.12493923604172545,30,32,65,72,3
0.00020712976706290588,0.0007719278322956754,0.026346046362460834,0.12952625002556228,32,34,66,69,3
0.00018727745971866013,0.0008464921504408468,0.024096601888913542,0.1396569361566244,28,30,66,68,3
0.0001790031288911495,0.0009249273673107164,0.022516037758823444,0.14620653081733231,26,34,63,66,3
0.0001682460732768664,0.000923117796803302,0.02191603086675461,0.14142325238414855,28,34,71,68,3
0.0001622825426113073,0.0008485558172395742,0.021791241687152435,0.13054130072320116,28,30,74,72,3
0.00018349380358276244,0.0007648620990683626,0.02268942857821404,0.12126634437010866,26,30,72,70,3
0.00017936856537359224,0.0006821204934750113,0.023618019487900297,0.10450128200851855,28,36,69,72,3
0.00015539916626207113,0.0006014471355183011,0.021309155000526356,0.0986801848709809,26,38,69,81,3
0.00015356804135767846,0.0006591155994270117,0.021110286461477203,0.10485689401059377,32,34,76,76,3
0.00015170900816364533,0.0006105385450974418,0.019728670222764567,0.09461404007110803,30,28,74,82,3
0.000144393236664215,0.0005970927105441802,0.019645895506714875,0.1001223109953261,36,26,75,84,3
0.00015345400598370948,0.0006846446964291075,0.02051615952898633,0.10503829306176048,36,30,79,75,3
0.00014686397940144556,0.0006061427110986478,0.020930953432929514,0.09222965682723747,36,36,73,80,3
0.00015107429957328665,0.0005673867789994572,0.02099433143440664,0.08915072025416752,36,36,75,78,3
0.00014025979877416896,0.0006092823384178677,0.020209326201673518,0.08834039690814723,36,30,75,76,3
0.000130881754714088,0.000574437536626319,0.019605293743195137,0.07958187040568537,34,30,79,71,3
0.00013198568890669725,0.0005370013091244546,0.020854122498622927,0.08576264410969792,38,32,87,70,3
0.00012920910300018588,0.0005751210828474851,0.020219011358665964,0.08690059811457894,42,26,85,67,3
0.00013005595985154377,0.00051575462196037,0.01913048457462147,0.07956453995561477,44,28,81,68,3
0.00013460645030406433,0.0005236838167037982,0.019552227812660455,0.0743767094278975,34,26,74,66,3
0.00012129321846048908,0.00045568933041170386,0.017256025852725558,0.06714025374837103,38,30,76,71,3
0.00010547679052057864,0.00045131660198720146,0.01602951334488645,0.06488785681969807,36,26,76,72,3
9.803517990103464e-05,0.00048764725171858626,0.017791271328781427,0.07230693113271379,40,22,77,80,3
0.00011785561356417316,0.0006105156150982167,0.018786755730702955,0.09127916695312556,34,30,76,84,3
0.00013546268031916815,0.0006842228402000051,0.019838743339788956,0.10348710555430639,30,24,73,78,3
0.00014513093730921992,0.000748427231380232,0.021451584166728068,0.11335992847310004,38,32,62,77,3
0.0001509355711514151,0.0007340536098102185,0.02038520695564785,0.1094348147312268,34,34,58,76,3
0.00012992310559651346,0.0007385563368150025,0.019301185355909294,0.10890385307674366,42,34,70,71,3
0.00012221981301019396,0.0006815805701153654,0.01761500818292935,0.10321297039137267,36,34,63,72,3
0.0001251859397465698,0.0006761082714203585,0.017941765648350583,0.10062772911459247,40,32,69,72,3
0.00012102302590337729,0.0006199368302326796,0.017818799283333735,0.10336382044419652,30,34,77,76,3
0.00012955928539234594,0.000553694234175621,0.018510298775812513,0.09012612544360497,32,32,74,80,3
0.0001371661835008452,0.0005924232895131104,0.019887957543496995,0.09770385040386408,30,42,75,77,3
0.00013658212289722094,0.0006333419461971984,0.02089106848866505,0.10150393510182808,36,38,75,77,3
0.00016189262483620525,0.0007707851087386506,0.024465139222230252,0.11955428074846139,34,32,66,83,3
0.00026202241712227866,0.0008673477865161058,0.029113169052841108,0.12896517471274382,20,32,62,76,3
0.0002696662140516648,0.0008024764387759793,0.029397808293879016,0.11650247130941405,20,28,63,71,3
0.00026984221508272085,0.0007366151872685018,0.02889615292500208,0.10911156596053331,20,30,65,74,3
0.00015237218361154064,0.0006622962978727248,0.022470738024217656,0.09393280545339755,30,34,75,71,3
0.00015695140605859374,0.000605130766314603,0.02166341376290194,0.09318995838827336,32,32,74,76,3
0.00016014373196464055,0.000640045611701876,0.020593663967428944,0.09654970955987745,36,28,67,79,3
0.00013756281258132556,0.0005897645497248224,0.01876965893250657,0.0963301765054963,34,26,71,78,3
0.00012599086434055527,0.0005870558518809351,0.017056344680156512,0.09779417772465486,38,26,71,84,3
0.0001358470669706081,0.0005805051423534519,0.016629796292427022,0.09648158899626648,26,30,75,78,3
0.00036144764238170847,0.00010062421418287885,0.014259531509721974,0.011786125681173567,6,30,50,73,4
0.0004536319902632889,0.00011076944567320205,0.01769737757018552,0.012221072804713911,10,26,40,67,4
0.00043387221148119803,9.480361311215698e-05,0.01686253274483538,0.011138358471842592,12,34,43,72,4
0.0003520480238558596,0.0001089891099092386,0.015487488990609515,0.012458440912762157,8,22,49,66,4
0.0002507718109378946,0.0001212905189025257,0.013296423201685378,0.012613200839301364,12,24,54,68,4
0.0002954142162928035,0.00012425372084300468,0.014186613624447104,0.012784195411792869,10,26,48,74,4
0.00031987468763760565,0.0001276204319573711,0.014809798051798759,0.013033424007158817,12,22,56,74,4
0.000752624254384875,0.0001210978169682996,0.02814283493684597,0.01224727236897446,6,24,35,80,4
0.0008607140590315605,9.772786598438089e-05,0.03151038122035324,0.011766336305791715,6,24,27,77,4
0.0008194089805214113,0.00010866658748348747,0.029271946809261627,0.01296660087510952,4,24,30,74,4
0.0007445226912318634,0.00010199041350462276,0.028185332592328406,0.012253958647122632,4,28,37,74,4
0.0002838090927443735,0.00010394404557288801,0.013402521820935728,0.01283602806745254,10,24,46,71,4
0.0002096418853235346,0.00011024191987637003,0.01042990857536633,0.013610665394300631,12,28,46,75,4
0.00027280798257512095,0.00025118193910263675,0.013540117969370054,0.02566636033589901,10,20,45,63,4
0.0004363516994796004,0.0005732222753497109,0.026475897320024304,0.05959602536741446,13,10,39,53,4
0.0010075685033942112,0.0008479104891046961,0.0500848658486854,0.09352026564802447,6,20,47,52,4
0.0012666547281410957,0.0009928776756536776,0.06689976986409969,0.12843816938761538,6,24,56,57,4
0.0013023122833240698,0.0011319440030239905,0.07519432262264458,0.15022162855184953,10,28,62,57,4
0.001182190132451976,0.0010061538961942166,0.07434233610329735,0.13429216027204566,10,30,62,67,4
0.0004683737177651035,0.0009835087322825056,0.057212517888361486,0.13643596277272999,20,20,69,67,4
0.0003853542953990383,0.0009410282245755813,0.050984856220135766,0.12528349708585598,28,22,71,68,4
0.0004095809031433418,0.0007839186428727916,0.04871136194618728,0.10469300276155155,28,24,67,65,4
0.00046629009081649024,0.0007970932711231122,0.045627194386923094,0.10858765355208463,26,22,60,64,4
0.00043578043990944555,0.0007499681144428065,0.04187341198340444,0.09363003398103643,24,28,65,63,4
0.00043017083974685767,0.0006787119249322874,0.04101332658134941,0.08838167552222843,22,32,61,61,4
0.0003254739075548775,0.0007277536421536024,0.04049204487482774,0.0993030465721282,26,38,71,65,4
0.0002674521889432905,0.0007312359807517047,0.038101233712865626,0.09664681335955727,30,30,76,68,4
0.00032349782683291367,0.0007995009072824079,0.03536161547408214,0.08725533341502438,22,20,69,66,4
0.0009779727528250288,0.0019534987156746213,0.07189084704069004,0.14093171294673465,5,11,75,65,4
0.001146059061144139,0.0019572049167411094,0.08665459754722593,0.13725669628288292,8,12,63,53,4
0.0012469983384228514,0.0017189228766261585,0.09790452548013663,0.12277844739798792,16,6,74,81,4
0.0014064909187859922,0.0017032974533116236,0.12397593904676914,0.13784729450435135,18,8,63,67,4
0.0009674604347496975,0.0007244653758209855,0.10732649635389356,0.09498251940581517,30,36,74,78,4
0.000905304702948621,0.0006708725865599391,0.10650781861167524,0.08925851488340739,30,28,73,78,4
0.0008646774198416814,0.0006505034198455458,0.1136760688016851,0.08765386005364573,32,30,71,75,4
0.0008147072705761328,0.000675928773832146,0.10923829842778364,0.08786576105175226,32,36,68,85,4
0.0007632932642143308,0.0006097558711932596,0.10352324822560395,0.0855445899981732,24,36,64,81,4
0.0007699916939161145,0.0005922402122469123,0.10067269163394715,0.0837839634929431,30,32,60,79,4
0.0007073296234500346,0.0006074604203471472,0.08931972813322009,0.08387812182673166,22,32,60,73,4
0.0005998216087657216,0.0005383540629733809,0.07906531758293894,0.07949062316860371,30,36,67,67,4
0.0004816801741043945,0.00042080580223925355,0.06417149320310556,0.058611831941411466,26,30,71,67,4
0.00043806186809524457,0.00030889104817813774,0.04827054946899346,0.0425353076462408,26,20,63,63,4
0.0003568705612668573,0.00022395364428692298,0.03193163400737687,0.02658949114165942,16,16,60,65,4
0.00038576093500612067,0.0001656824622781333,0.027402777749099362,0.017303309498373245,18,16,57,68,4
0.0003828566031482014,0.0002891168778851606,0.028545332362113107,0.022405485240321127,18,14,55,68,4
0.0005010063526609478,0.0003651743774524291,0.03125011610787094,0.03212611159523611,14,16,51,58,4
0.00042948672490269037,0.0004215618421686866,0.030756547284634846,0.03442320570825438,16,16,51,54,4
0.00037799593607912643,0.00040880253072332964,0.024899942182259632,0.03416519099803465,12,20,49,46,4
0.00034817222510195417,0.0007749905249057748,0.043716777730426044,0.09533410266372172,34,32,74,60,0
0.0003521007816411318,0.00076036022784839,0.04323370166664959,0.0826238711987407,24,24,69,62,0
0.0003616093151545446,0.0008364095508748134,0.04175754206574033,0.08181381031977004,28,20,68,58,0
0.00034480134835195345,0.0007790634472271019,0.03754707177655492,0.0801155459809557,24,18,74,61,0
0.0003868409983245841,0.0007638381727106537,0.03915038350444831,0.07962020714968415,18,16,61,58,0
0.0003902211798743357,0.0008080298559184452,0.03808653492026843,0.09007815076818532,18,18,69,63,0
0.0003035990037262459,0.0007273795022318016,0.03334096682953392,0.0758919477535905,20,18,67,68,0
0.0003073787670506138,0.0006722250168279764,0.03350056360594184,0.07194756199945411,18,16,71,71,0
0.00023661283521396456,0.0005464085076748557,0.030288279270270203,0.07005565953766335,26,24,80,66,0
0.001243553027579731,0.0005641171441418472,0.07762014153708668,0.07139407015818179,4,26,76,74,0
0.001256686193081675,0.000623157401759106,0.07582006976073861,0.08406544948082802,4,32,76,76,0
0.0012409757762229681,0.0006154667653788982,0.07393471118746195,0.08605730658903382,8,30,64,77,0
0.00018785292354052578,0.0005466212323248919,0.02686711774918374,0.08053759809204847,34,36,79,84,0
0.00020355313576274784,0.0005500036425330676,0.025995709048807263,0.07687478686278948,30,26,72,76,0
0.00023658161661253306,0.0005553451237213274,0.026813202107612247,0.07000013251150371,26,28,66,71,0
0.00022673193691366366,0.0005122148347983211,0.026291667325443992,0.07154814791815829,30,32,69,75,0
0.00017022549243863528,0.0005231895052673973,0.023828623452755368,0.07011864654457305,32,34,78,67,0
0.0001577866474112302,0.0005262554479772559,0.02272946921870842,0.0652497893222564,30,28,76,75,0
0.00015074225889080003,0.0004418166896537645,0.02224921082125107,0.060588979299927626,30,24,84,78,0
0.00014354194938011178,0.00045985012286011584,0.021609165307775964,0.05947090873098532,32,24,83,71,0
0.00016838589284167246,0.0005178920293088954,0.02296156507431014,0.06478980442546305,26,26,84,70,0
0.00015209437872895225,0.00046546955837292286,0.021647559133864836,0.06257779875404691,26,28,84,71,0
0.00013798916057946296,0.0004633698117397465,0.01941291025046081,0.06332810986162075,26,26,87,74,0
0.00012564686772307865,0.00041119429501824305,0.01903045328110174,0.057431309542437525,26,24,88,75,0
0.0001314438787978445,0.00032316140350334253,0.01922618651546292,0.0509744816190699,34,32,90,81,0
0.00013978960307365842,0.0003540663911163276,0.020738901682906957,0.05645715246517094,34,34,85,82,0
0.0001373848758107323,0.00037259468036799357,0.021422551004153318,0.05836603059909864,36,36,85,81,0
0.00017547314056523409,0.0004961277962956987,0.025607750436902547,0.07523102257164918,32,28,76,66,0
0.00016264848195679274,0.0005596079539042405,0.02446191272738124,0.08273500861073761,30,26,76,69,0
0.0002082139610247832,0.0006584565293827599,0.031233946071975258,0.09628691710304019,34,30,77,69,0
0.00027825054724983525,0.0008012876810308011,0.03769684148389474,0.11107698971993248,36,32,69,67,0
0.0002639129830498727,0.0007689213651013754,0.03559222317128629,0.10725697260829149,34,30,75,71,0
0.0002556553035703798,0.0007295001157609607,0.037136443579996375,0.10296275106169922,34,32,74,69,0
0.0002115984866313604,0.000637411450930739,0.03040828501252041,0.08499339891675312,32,40,74,71,0
0.00018262274210549605,0.0005217367776940229,0.02408670504999873,0.06652950214639586,30,30,80,72,0
0.00016942342386989836,0.00042379214494060133,0.025129616369240052,0.06082760875045223,26,24,80,72,0
0.00014304882850567347,0.00043515916597207946,0.02070266680632409,0.06128541493627009,24,24,89,68,0
0.00015604412585416093,0.00048395116555741775,0.02113480857191788,0.06401956659221704,22,24,86,66,0
0.00015717452062170113,0.000534567022352205,0.020067188991220775,0.06541682018795693,22,20,83,65,0
0.00011928679104217174,0.0004541510739877149,0.018067321006503295,0.06156856924536559,28,24,90,63,0
0.0001235163319647128,0.0004103258069407045,0.018893933561263485,0.05381008066600874,28,30,87,68,0
0.0001077421246187314,0.0003276957968987509,0.017591831580739053,0.05089032434187613,32,34,87,73,0
0.00010964839068068735,0.0003232800798077293,0.017040029426816625,0.049453714367113294,26,34,86,68,0
0.00011076738803623833,0.00028997110487198195,0.01643070064336102,0.044267712214712,24,36,88,75,0
9.515431567274217e-05,0.00025617647404505695,0.014210651494563504,0.04186511730801797,32,30,85,75,0
7.844826035199298e-05,0.00023964705421337056,0.01189492188631311,0.034811260676799724,40,34,90,77,0
6.338768842097009e-05,0.0001906946769168881,0.010093998617507741,0.02744563475833149,28,24,96,86,0
5.273814214249515e-05,0.00017627063663895032,0.007698893681469232,0.023212876869291178,30,25,87,80,0
5.243443605809953e-05,0.00018918296719070465,0.006442147516149295,0.018937663482818147,30,16,93,71,0
0.0003513876664944493,0.0003468482744552334,0.03983874295326036,0.04581651229630333,26,20,69,77,1
0.0003225337188064894,0.0003722614894780739,0.04064883089049111,0.04733751480214339,28,26,69,69,1
0.0002840327134079723,0.00032340240751632416,0.036640428092008785,0.03979472119094799,32,22,71,71,1
0.0003197320809904187,0.0002476489768038696,0.03964127882581487,0.035857611794137885,22,36,72,69,1
0.00032007600662036526,0.00022848954173747483,0.038985235353132884,0.03308140323678998,26,38,71,65,1
0.00032306786276338755,0.00019906954304068573,0.037599574346438035,0.028223486209571696,30,28,71,73,1
0.0002941098902987193,0.00021509889484947468,0.03557567624126199,0.02688734688532779,30,24,73,68,1
0.0002592311728874872,0.00022478800828848965,0.033633049082090895,0.025098394561751242,26,22,71,68,1
0.00026625377344674896,0.00023652489436482894,0.03163193137944422,0.025975043987445896,22,26,76,66,1
0.0011442235250068203,0.0004505981450880016,0.07267948171486074,0.03888315369702374,6,14,66,67,1
0.0012755984349593838,0.0005908751256431727,0.08385369197812861,0.051185572840845094,12,18,61,65,1
0.0013110338337983403,0.0007272774247937507,0.09440166836747693,0.06370047391763191,12,18,59,65,1
0.0005784425317063722,0.0006864424915510989,0.07111371171547683,0.07306619890852975,26,24,67,57,1
0.0006588432135578325,0.0006650790009565799,0.07441052506997267,0.07609432684604671,26,28,79,57,1
0.0006637644896735681,0.0005961036348980836,0.07890369013416842,0.07582318523452608,32,28,80,65,1
0.0006073058986862487,0.0006187119510552339,0.07371201286423787,0.07526393516493249,28,26,73,71,1
0.000620234603932484,0.0005245128391176851,0.07717547317237751,0.07154493333356693,26,22,73,75,1
0.00048531277020640295,0.0005393711348699487,0.07328086646004546,0.06862425877602107,34,26,69,80,1
0.00044835015761525134,0.0004787347515524886,0.06300785303889174,0.06120059497720143,30,26,74,74,1
0.0004465668807982002,0.00046295621441733316,0.06086116633693613,0.05823357967191133,26,24,66,70,1
0.00040683693645325277,0.0004257927422500095,0.052403055748613814,0.05643450457514466,22,24,65,71,1
0.00040325899960497473,0.00041961703701139276,0.052454039625479086,0.05484142250216415,26,24,68,65,1
0.0003850774556741218,0.00038778521105944,0.05170542851407419,0.0528303377786121,24,22,69,64,1
0.00033708731265064124,0.0003320709827590139,0.04460912283398311,0.042966545616882824,24,26,69,77,1
0.00028521362733930196,0.00023596093012764158,0.03767963174079916,0.03238209947622228,26,24,68,85,1
0.0002744245891612715,0.00022103442697537622,0.034802972296140856,0.030596594310685444,26,24,64,82,1
0.00024729263981835783,0.00025594010519274825,0.030960777806421345,0.031901559269292654,28,18,63,84,1
0.00028630209747235636,0.00028185129920278967,0.03592612714421296,0.03333265604902342,30,20,67,74,1
0.0003408592059550444,0.00031108269022773235,0.04035313632947075,0.035605979112547204,26,26,63,74,1
0.00034870446589931465,0.00032300086197756055,0.04554767348514514,0.03535739661402787,32,28,66,71,1
0.0003756734772811219,0.0003209154862427495,0.04787389074138631,0.03730291739173568,28,26,71,83,1
0.0003380149707601088,0.000299288605616255,0.0460629665216261,0.03786228061664045,32,26,71,88,1
0.00037445598126094494,0.00030186117574789736,0.05091248325724366,0.0394696771904442,24,28,65,80,1
0.0003359478503407981,0.0002792974343643036,0.04244808492557456,0.03603779957968928,26,26,62,79,1
0.00039252121804510503,0.000251554785122788,0.043553481270474176,0.032256636040273456,22,28,59,69,1
0.0003659101608527924,0.00028629062545906564,0.042186074703102705,0.030311867810005104,24,28,59,72,1
0.0003139892587043856,0.00022992505063778473,0.03346055157892149,0.027978065752425348,24,28,57,70,1
0.0003095294333242679,0.00021118649361021518,0.03228749832183394,0.027647757842629222,22,24,64,74,1
0.00025244882017005026,0.00018088263230699717,0.026090787664872273,0.02305045721391256,20,32,62,72,1
0.00020515104392322157,0.0001757079619902325,0.02375256303581387,0.023221107257483994,24,24,66,78,1
0.00023649380468853678,0.00020167869128327143,0.026917130022099157,0.025220031185493277,24,24,62,74,1
0.00026604759764054333,0.0002562868138986692,0.029733058582655656,0.02958307851254227,20,32,67,66,1
0.0003164783514251514,0.00027517733466271213,0.03713331410771531,0.031925660555445434,20,26,61,68,1
0.0003079940649199663,0.0002420201782600848,0.03489831480130856,0.029734652348132308,18,30,63,73,1
0.0003052169840971,0.0002187807142704066,0.03439281876892516,0.02578789610440084,18,26,72,66,1
0.00022763916407989978,0.00016593137876689374,0.02704405205818047,0.0183598245859214,26,24,66,65,1
0.0001695360345917961,0.0001207140464269572,0.017732429340018365,0.013401198685142779,20,24,63,63,1
0.00013781375355095216,0.00011750920150749162,0.014378174021796945,0.010828775765333181,12,16,69,58,1
9.525253823131622e-05,9.955848300920853e-05,0.009091314592952439,0.009259655976851557,22,16,77,57,1
0.00048410716724640716,0.0002899382590803113,0.05662876461408066,0.026882641334958376,32,22,70,60,2
0.0005280217560333229,0.0003413010649655421,0.059795323409340725,0.02663560892839351,30,24,63,58,2
0.0005693906791389084,0.00039946055894941987,0.06545724754002262,0.02914815522484025,32,12,69,62,2
0.0005641197678910989,0.00046175786322877,0.06425604615198831,0.030657772377970294,28,12,68,61,2
0.0005464653646962338,0.0004471512357669489,0.06774214732514144,0.03225867712870143,24,12,65,57,2
0.0005299546974999648,0.0003924170436538145,0.06383531122875342,0.028429350269351176,20,16,67,50,2
0.0005260337730312658,0.00035082668400015214,0.06157422090450176,0.026994524382952537,26,14,65,49,2
0.0005079125919078477,0.00029729563571328485,0.06143316148492108,0.02292747827999892,26,18,64,57,2
0.0004794975952485156,0.0002995453321368493,0.05726967033901776,0.023013467232557008,30,18,65,62,2
0.00044658195826583077,0.0005023962904065313,0.051517096378779874,0.034719338643888695,26,16,60,52,2
0.000391780780529842,0.0004514055452965487,0.04507779083995695,0.032460270959184905,30,12,65,52,2
0.00041775800690053245,0.0004488395171887128,0.05376696987459027,0.03368000317946352,24,14,63,61,2
0.0005251990129006747,0.00030334557855821653,0.07071213986734931,0.02460781179057537,24,24,66,61,2
0.0008118262481209146,0.0004340076103068861,0.10904638492770052,0.03295750698891838,22,11,71,69,2
0.000992883302803628,0.00046113382728605305,0.13272227492144012,0.03868443212459893,26,18,65,64,2
0.001052950230648723,0.00047807721025954733,0.14678646910705342,0.040388502812754204,34,20,77,64,2
0.001169294403757408,0.00047835903565502866,0.16627648569402548,0.041695531244950915,28,20,71,64,2
0.00114404511759831,0.0003748105623230627,0.16483258528971148,0.03820922708209243,26,26,67,61,2
0.0014066327855536138,0.0003710644347785339,0.1784108399653031,0.038482496072989154,24,28,69,65,2
0.0016696303760562773,0.000377679511594211,0.1917193255664928,0.04045862543557924,24,32,68,61,2
0.001671881750377399,0.00035793507180589276,0.18054392737272704,0.03929004594709395,20,32,70,69,2
0.0016838779701683192,0.0003380958735236899,0.1830186228248147,0.036855541328392416,26,26,66,68,2
0.0015474912591392546,0.0003892833745984661,0.16934982740531115,0.03590637431875308,26,18,68,65,2
0.0013789652380181933,0.00029854739726817075,0.15265629532164135,0.029387185064858247,30,20,64,73,2
0.001285102290947239,0.0003640017959639256,0.14435055194949303,0.030036098956411253,26,18,63,61,2
0.0010946153235527089,0.0003269163756062244,0.1347983168576427,0.027298015314201805,30,18,65,61,2
0.000981219529465594,0.00025564113963451074,0.12010137793585653,0.022428445611837846,28,20,68,61,2
0.0007877816699153363,0.00030049930807394675,0.11025054228596808,0.025593521781794925,28,18,68,60,2
0.0007428406703777855,0.0002877577928755063,0.10432231489598377,0.025340035114955133,30,24,74,63,2
0.0006955940729952445,0.00034215287712970386,0.09601593122364457,0.026663734216370586,30,22,70,64,2
0.000700482713384511,0.0003465233600373743,0.10006190986921455,0.026809106787290773,36,16,68,53,2
0.0006945729508190195,0.0003554270440707008,0.09911650488797456,0.024275094550004837,32,14,69,55,2
0.0006835522788038137,0.00030521300829025274,0.10362118780425889,0.022442168370821452,32,16,71,60,2
0.0006806827104759101,0.0002959900959405992,0.10199409422698312,0.020718588034095133,34,20,73,63,2
0.000792536857848429,0.0003100044135881304,0.1048776913540491,0.023217634664316436,26,16,68,70,2
0.0008086590902070108,0.00031008709010977545,0.10780234085434637,0.02311687257009967,26,20,64,69,2
0.0007241042910105353,0.0003821002329925536,0.09764093904799519,0.024372907952417196,24,14,61,64,2
0.0007642926404673605,0.00041699333808936016,0.09819467902564312,0.027536141357002417,24,14,58,53,2
0.0007560138203527385,0.0003501162915131487,0.09453762461799467,0.02305545016507028,32,10,68,56,2
0.0007426051696470194,0.0003657423772469541,0.09790140933387766,0.0235317928003825,30,12,63,57,2
0.0008054959350579541,0.00032142789695683633,0.0964947002603281,0.02230095396921701,24,14,66,53,2
0.0007563322130445439,0.00025491992927233437,0.09881462066021808,0.01945563694299003,30,14,70,64,2
0.0006359173111238209,0.0002497368381630346,0.09107439083679328,0.019773142349467355,30,16,63,68,2
0.0005765972471438999,0.00023105399288479058,0.08165445569086709,0.01957292493880916,28,18,67,67,2
0.0005926110916023418,0.00018837797043054014,0.07882354711820831,0.0189643441921124,26,24,72,66,2
0.0006169842849218131,0.0001760063778589245,0.07315439746877465,0.01824935950873605,28,26,64,59,2
0.0006382972247440104,0.00019596919045569697,0.07712658485621493,0.019021287085198964,30,26,60,66,2
0.0006208276696708862,0.00023838134551117508,0.08362526313774993,0.02007805329013916,34,20,60,66,2
0.0007436983647471748,0.00024850206694056296,0.08903009392572298,0.021149174882518905,32,22,61,56,2
0.0001277406696450092,0.0005698602068033213,0.017720997232688537,0.08933913768915829,32,28,74,77,3
0.00012077162912447033,0.0005932992215049393,0.017251370089197478,0.09307975468977107,28,32,77,80,3
0.00014820125789336873,0.0005383249921252929,0.017952565067940178,0.08876863242664793,20,32,78,75,3
0.0001375443204780415,0.0005432286069573895,0.018218144518992962,0.08778462507248716,26,30,70,80,3
0.00014160171249076134,0.0005193179554384856,0.017478773003007084,0.08060847305990035,28,30,69,83,3
0.00013201735114489529,0.0005358886660476936,0.017380884989097376,0.07643234506545589,30,32,67,78,3
0.00011069446582776713,0.00048237773841950467,0.016524845059943883,0.07387898021114242,38,30,70,82,3
0.00010760263490927938,0.0005133211209372104,0.016095865971176862,0.07646198263069814,36,40,74,72,3
0.00010533234233222608,0.0005282396658864644,0.016021947531109894,0.07642674178882344,34,36,80,71,3
0.00034569206252701924,0.0006336759748796484,0.024817858833046554,0.09220563263475173,6,34,76,75,3
0.00034866049386935875,0.0006448959230847595,0.02499519824801286,0.09920023745681947,6,34,72,70,3
0.0003619812462070783,0.000703589806685016,0.025775720573145658,0.10803434693554612,6,34,63,71,3
0.00014618938972915996,0.0007456453063141015,0.017715762011488934,0.11979251573551312,30,38,72,77,3
0.00015057528256191127,0.0006848916093032744,0.019531538748050206,0.11376898319195218,26,40,73,74,3
0.00015888793722409548,0.000745524853627896,0.020404671600854397,0.12193420600027816,36,36,70,74,3
0.00014629033363183766,0.0007656671514582167,0.019556465381214222,0.1205825792778661,26,34,71,72,3
0.00015490210213701418,0.0007672594607961566,0.020752654086691177,0.11881475856510267,30,28,76,67,3
0.00014579164375787233,0.0007368235722920432,0.019398515396303172,0.11715626365361304,28,26,75,66,3
0.0001552467346125072,0.0006860026856045624,0.01858772569497298,0.10227528311090966,30,28,69,72,3
0.00012563541840431683,0.0006397074297154827,0.01775819007745551,0.09276420652518436,26,38,69,70,3
0.00011032230177260748,0.0005760118514252033,0.01639126696275498,0.08574063824622642,34,38,75,76,3
0.0001106978086719261,0.0005889577189131545,0.016116493312586428,0.082216141924478,34,38,74,81,3
0.00012549114790201012,0.000638151394396397,0.016425963826667243,0.08446966790405161,22,32,72,73,3
0.00011855670931639186,0.0005783001483726629,0.016137928787017877,0.08109567749875274,26,30,68,79,3
0.00011593918564155122,0.0005269544061435483,0.016330378707323345,0.0764666211281686,32,30,71,79,3
0.00011478051451217085,0.0005119269555174901,0.016470952545715567,0.07339706360113324,32,30,68,72,3
9.95258611242863e-05,0.00048452201405085437,0.016226895270279415,0.07231168592164348,34,34,69,81,3
0.0001013193407058974,0.0004815148445142337,0.015548830891118859,0.07347092370291272,34,36,75,81,3
0.00010902466447443325,0.0005151355141754157,0.014626705158913,0.07297425339091126,32,30,76,81,3
9.97046629965471e-05,0.0004935015184093101,0.013631951394557713,0.0699127936908653,32,30,75,76,3
9.147832696309736e-05,0.00043248926572782314,0.01240413469607331,0.0630980050531469,34,30,80,75,3
9.416748213983059e-05,0.0005102631321626373,0.013044046136600172,0.07218670836245167,28,28,81,74,3
9.397836628744749e-05,0.0004550753934490382,0.013832778979875124,0.07194021580704481,30,26,87,75,3
0.00010072835682513182,0.0005033042293513475,0.014761490076758626,0.07577569959419582,28,22,82,72,3
9.594165237028985e-05,0.0005519666115457154,0.014752798000171046,0.08100533500684494,28,24,86,72,3
9.990720220336269e-05,0.0004975628101415573,0.014815180815511787,0.071116020570827,28,24,86,75,3
0.00010607383352261868,0.0005345503833756723,0.014430423242691831,0.07734999978687554,26,26,79,79,3
9.425514942598473e-05,0.0005493598772496927,0.013899348545414967,0.0778298719294403,26,30,85,77,3
9.718969079724697e-05,0.0004837681786366115,0.014121409836736865,0.07428458210246827,30,28,79,81,3
9.982983904737022e-05,0.0004706635642702819,0.013523319496754184,0.07249363501314951,26,26,75,80,3
9.15875098181166e-05,0.00043863534048832904,0.013626737930036697,0.06493598220121764,32,30,84,81,3
9.394137393078185e-05,0.00043649980266748095,0.013774753417429527,0.06364389949681139,34,30,76,84,3
0.0001030395783029972,0.00042714482940725654,0.01413212299684198,0.06344764641485859,36,28,78,81,3
0.00011268072792279914,0.00045967540981078426,0.015393929270484873,0.06922658100051444,38,34,76,83,3
0.00012987413519739344,0.00044153782038090035,0.017898051083708913,0.07320182033516519,32,36,78,79,3
0.00013469862389431817,0.00045947201154173924,0.018779056510383054,0.07493726751282233,32,32,80,78,3
0.00012341473220638978,0.0004754019584004563,0.018878792627681263,0.07897831798451924,36,36,79,82,3
0.00014140006433129904,0.00047842833778018623,0.017742064080511873,0.07554835224296032,34,32,77,79,3
0.00010919577757313793,0.0005303526202993042,0.015579881410593866,0.07670557935424643,32,34,80,69,3
0.00011739243387315423,0.00017282273294364454,0.011524669983351157,0.015700006351121263,22,20,74,60,4
7.744893771767865e-05,0.00015122081806603403,0.008343350500461005,0.01294859174914292,20,18,83,56,4
6.879218262798148e-05,0.00014816426766378315,0.00769286610282855,0.011032483245954407,20,18,75,55,4
5.182125209519245e-05,0.000168402654047967,0.005853642862704415,0.010446907337789073,16,16,76,53,4
4.414091015068664e-05,0.00014285906862494227,0.004679834153513199,0.009098790155345425,22,20,74,47,4
4.586611916352673e-05,0.00013232582633861196,0.005135640242834841,0.009399172155170915,28,16,80,50,4
5.666800118996e-05,0.00011079497552535034,0.005898000359069502,0.009253577958604878,22,21,79,50,4
5.510742804044127e-05,0.0001386464495345054,0.00577656948255138,0.009800394768916303,26,16,86,53,4
4.979360951376345e-05,0.00012871570609200358,0.0051852185823390165,0.009278898184323843,16,18,89,63,4
5.0402252806742855e-05,0.00011184479754663912,0.004758313276649885,0.008279296385750047,22,20,87,63,4
5.6936020055036094e-05,9.863627074088252e-05,0.004082560539919831,0.007374004432339948,16,17,90,63,4
6.783508194846645e-05,9.266940009180303e-05,0.004379447457624614,0.007255683259974003,14,12,87,62,4
7.164586178404778e-05,0.00010310404798426997,0.00467501845114524,0.0071307680998132705,18,19,80,60,4
6.299460443541882e-05,0.00011875230172179889,0.004643458759983957,0.007440310922292859,20,16,85,51,4
5.4791281320179084e-05,0.00013099613930695248,0.004940976916057158,0.008108165972442108,20,16,80,49,4
3.627056482706518e-05,9.584855038995626e-05,0.004497913261523351,0.006920240720351988,28,16,87,53,4
3.662260255603923e-05,0.00011740510524087417,0.004828520994073309,0.007739663501110485,36,13,86,52,4
3.328576543273037e-05,0.00010928446788438367,0.00438971518967894,0.0076985841418890965,34,18,88,46,4
6.941068654533309e-05,0.0003206445587074766,0.00549779373689301,0.018567212895587153,12,8,77,43,4
0.0001759241476812296,0.001186569922739198,0.01103940833794045,0.06715421663145982,10,7,69,44,4
0.00018605015107849652,0.0012355728386758975,0.010774767938438077,0.06859075325182884,10,6,73,52,4
0.0001537886257631343,0.0011351948793850224,0.009668248935022222,0.06257430665596946,6,4,77,62,4
0.00014770043166914868,0.0010220910033022115,0.00935386239620852,0.05961691491067821,3,4,72,57,4
3.110901223190503e-05,9.830231022133127e-05,0.004256015871465392,0.011807677517932894,40,20,85,75,4
3.0596416055380127e-05,0.00013200677813684163,0.004580388398779886,0.012576512848617811,36,18,81,76,4
2.9806482462341917e-05,0.00012424437356678685,0.0042630849808712725,0.011642773387788212,34,16,81,80,4
2.734023923724291e-05,0.0001237784205289962,0.004241513673448973,0.01099267607082377,38,16,87,74,4
2.3809438020605947e-05,0.00011620381216585002,0.003954587624744532,0.01093065690473985,36,24,92,86,4
2.3861721481454493e-05,9.024280380539797e-05,0.0036425176375620956,0.00954868910677309,44,28,91,84,4
2.7880526197810677e-05,9.194102705461633e-05,0.004026264216208009,0.010573829983700848,36,24,90,84,4
3.354719681363295e-05,8.290529314424063e-05,0.004090582084777654,0.009502948094265407,42,24,88,86,4
3.0686208499093645e-05,9.518127646487201e-05,0.004251971434963454,0.0113743846406717,40,24,92,80,4
2.7808915907825788e-05,8.644980407972607e-05,0.004050993545423524,0.010329344007008827,38,28,94,73,4
2.343716685276135e-05,9.419554850984207e-05,0.0039458729235774155,0.011269307186836872,44,20,97,70,4
2.050641210346511e-05,0.00010594148107654294,0.0036229568109130738,0.011798895766265912,42,24,100,72,4
2.2469933279690933e-05,9.914896137585911e-05,0.003710670673249419,0.010809060246149204,28,28,93,78,4
2.860869714343202e-05,0.00012076135064749986,0.004478993182535567,0.01157498611000109,30,22,85,79,4
2.844902990968216e-05,9.050169476934456e-05,0.004307308257861603,0.009965127511727576,28,24,89,70,4
3.174598247129136e-05,9.613252898594994e-05,0.00450408952761892,0.010077452795809702,28,20,90,72,4
2.8966719592179257e-05,8.917305937288035e-05,0.004230658823148299,0.00954272654325368,28,25,98,74,4
2.4647746891768264e-05,9.85191432967915e-05,0.0038413213125450905,0.010167383450857582,32,22,95,74,4
2.2754049393337015e-05,8.649283883492436e-05,0.003953291762385965,0.0094186936210127,40,21,94,75,4
2.43946334303749e-05,9.326226723432967e-05,0.004239789360600029,0.009837275501351274,34,24,101,72,4
2.7946351149858895e-05,9.55675998365528e-05,0.004155484699148853,0.009635264445628754,38,25,99,71,4
2.764381610569192e-05,8.64788289773718e-05,0.004099043615400452,0.009147993106971477,30,24,95,64,4
3.115840207814028e-05,9.417184405191303e-05,0.004075154634870194,0.009539677397800466,26,23,91,68,4
2.90597863272456e-05,8.751042932080624e-05,0.003966241278162915,0.008743376764945686,36,18,83,70,4
2.852443082405747e-05,9.131753155231298e-05,0.004345943870578752,0.009005649480031944,36,25,90,76,4
3.032602482460702e-05,8.58880603258702e-05,0.004480868115794657,0.008551320797469638,30,22,94,81,4
0.0005458627382629626,0.0008708882625976666,0.04578811334825913,0.12254707306320434,9,32,71,68,0
0.0004093439578916213,0.0008444273185055687,0.0472052422687054,0.11801039400658986,14,26,69,64,0
0.0003435759793193898,0.0008577196888744032,0.04352929168700397,0.11120477540930823,18,30,70,70,0
0.0003108502324100412,0.0009170925152740544,0.04177391310210926,0.11217622522599921,20,30,69,66,0
0.00032076641058158305,0.0009044621380853525,0.04341925128094669,0.12044133470940012,20,30,74,68,0
0.0003339231155955192,0.0009681950704632431,0.042035803679424805,0.129980389289206,24,28,74,67,0
0.000336413450071364,0.0011039005440893392,0.04500570957128161,0.15256631886083796,28,30,77,59,0
0.0003563527617883648,0.0011371023697787014,0.048501697193983416,0.15534885780396188,30,28,75,63,0
0.0003325170258260573,0.0011673308805087107,0.04410319745795232,0.1524618753653674,30,30,74,58,0
0.00031617967029858236,0.0011599192292805242,0.042639266007180605,0.1391494771385487,26,34,77,65,0
0.0003475994420379194,0.0009138314902670945,0.04202634380253949,0.11292079254519405,28,30,65,64,0
0.0003633443131799715,0.0008393746485206657,0.042811410785460385,0.11158121193342846,24,32,71,64,0
0.0003643426201256452,0.00070502302399842,0.045807020693387095,0.09732087476321165,24,34,69,70,0
0.0003441466191999064,0.0006717112990108682,0.04344334326217999,0.08846750249020686,22,28,72,71,0
0.000342027366159194,0.0007583710485290911,0.043970726308499984,0.09727628535918265,26,28,78,62,0
0.00031905763149234526,0.0008061493967667118,0.04460512201146994,0.10042239973375518,22,28,73,65,0
0.00034975912650934797,0.0008627879402875263,0.04801889263054248,0.11000666116394693,22,26,73,66,0
0.0003582059887978074,0.0008886489733147693,0.05158957572068656,0.11658280799181008,20,30,72,67,0
0.000336730047611522,0.0008567623937614233,0.05095060229368774,0.10960161900937097,24,28,68,70,0
0.00034142109135929113,0.0007746839528965353,0.04883214035301225,0.1022175042307583,28,26,73,72,0
0.00031692357441555856,0.0007943858328225034,0.04604953000706766,0.09270857493134288,28,26,72,71,0
0.0003420603992998286,0.0007182422132934968,0.044140498935210465,0.092537538382774,32,26,79,63,0
0.00035184518742287024,0.0007255897679581008,0.046087543157996506,0.0986529280669672,38,24,76,56,0
0.00037341645991571587,0.0007498021974447304,0.04742948636702657,0.09612824762298716,38,30,79,64,0
0.00032451663261118957,0.0002744786440420773,0.027320701731540407,0.03045250298021782,30,26,64,57,1
0.000648735342684414,0.0003789500314438643,0.04849020140538048,0.047311595507066755,26,18,52,55,1
0.0009208890849326952,0.0006137030227308261,0.07865958124778534,0.06746347104608595,24,24,63,55,1
0.0010427472658968992,0.0006684649508127707,0.09032553831529679,0.08361727620698642,28,28,63,58,1
0.0012150725878455652,0.0007728464892074756,0.09907911411324594,0.09199282227053127,34,32,67,64,1
0.0011508684076091027,0.0007178411731011891,0.09312400071031957,0.08661204156446323,38,36,70,72,1
0.000770587010739282,0.0006130541466302933,0.07492691159148156,0.08647750912650912,32,38,75,80,1
0.0005477008004969929,0.0005685834129637934,0.07044089878820121,0.07821803501466239,36,30,75,71,1
0.0005022635025342326,0.0005188127178196192,0.0685832439660811,0.0745355699852615,30,32,81,81,1
0.0006474379185302405,0.0006054307927101208,0.0769696959533597,0.08192957665198645,28,32,70,77,1
0.0007272524564157473,0.0006403614681639978,0.08738329310310436,0.08594405854511321,34,24,69,69,1
0.00080747245837252,0.000659701212628316,0.09280199297886349,0.08471126239433434,40,26,65,86,1
0.0007484417183107412,0.0006006720055966679,0.09422468504684975,0.08464903096457116,38,28,69,84,1
0.0006138865282072744,0.0005177035529896916,0.08518649381062805,0.0725031127132749,34,26,67,86,1
0.0005879822864848464,0.00047341529349824023,0.07161858416334031,0.06428603525385794,34,28,72,79,1
0.000535300970788865,0.0005119490963582346,0.06581879400289486,0.06263403954395225,26,36,70,68,1
0.0004866367435902965,0.0004785987123990521,0.054454870753234776,0.05960581168634634,26,34,70,66,1
0.00047574398845185773,0.0004887136273823618,0.05858563490369244,0.06340876821701727,24,38,71,70,1
0.00046076490980544594,0.00045027497797341614,0.059804878664274475,0.056649019456390386,28,36,70,72,1
0.0004377382257377249,0.0003998538690728373,0.06286292924765163,0.05361547312219541,26,32,68,73,1
0.00045088288152999185,0.000372578396367809,0.0618599450375784,0.05513716127957326,26,28,64,74,1
0.0004257920100467564,0.000330762515248557,0.051587028277601255,0.04822114503648695,32,22,62,77,1
0.0004048216773369706,0.00037403884929526523,0.05037671996614335,0.05103837053376442,32,20,62,78,1
0.00036168429521282015,0.0004105691303256791,0.04152792419763521,0.052436115297397654,34,22,70,68,1
0.0015237943298970114,0.0008820157143127774,0.18016699101874195,0.07351897037747508,34,18,66,57,2
0.0014235221844005807,0.0009281495549290157,0.17400878319493335,0.0760794628173276,24,14,63,51,2
0.0014386582279106142,0.0006782075704449033,0.17725850823501174,0.06465224772783845,22,26,64,68,2
0.001194920791759175,0.000690522034228265,0.15076673793650905,0.06383865310591459,36,18,71,62,2
0.0010568327526187466,0.0006738786573168187,0.1428444109623294,0.059480913480995885,22,24,73,62,2
0.0009271381256775502,0.0005505883480178963,0.12880817912784498,0.05127950049538803,30,24,70,64,2
0.0007628996074938755,0.0005008630412729033,0.10690979537246631,0.04682853342033687,34,24,72,56,2
0.0007585177006309802,0.00045031658825197657,0.1069439142048967,0.04071736741868608,28,30,69,59,2
0.0006979542394735226,0.0004394317425346804,0.09737303769122428,0.03830739026648995,38,20,66,62,2
0.0007623328819748514,0.0004994112838768807,0.09893433875103674,0.03971119650544656,46,24,63,66,2
0.0008567742982303209,0.00048520352720260375,0.10103531258312931,0.036141679930738226,40,20,61,62,2
0.0008190780686308569,0.0004591727651905374,0.09784526121134345,0.03572489414425007,36,20,66,59,2
0.0007730024575653323,0.0003942119461782826,0.09158843954551231,0.031216479967365915,30,16,71,51,2
0.0007356126645147873,0.00036007050970052293,0.08579252186304925,0.028805248957107565,26,22,71,53,2
0.0006269354678126654,0.00039966832619698305,0.08250584202205247,0.03488351864511578,32,26,67,54,2
0.0006137017953333162,0.00041084310228199124,0.07988547901269477,0.0354132013452281,30,32,67,56,2
0.0006602899537517253,0.0004153931464944348,0.0810868559896055,0.03813426395776253,32,22,62,54,2
0.0006404738553252735,0.0003639486604835518,0.08353766645375808,0.03559896083193707,38,22,67,63,2
0.0006065289256922264,0.00038466909482139447,0.07431404041546225,0.03382724226099979,34,24,68,54,2
0.0006829849288180811,0.0003503331981212696,0.07280798123669427,0.03334924176262878,32,24,70,60,2
0.0006920343351140405,0.0003918288751242273,0.07425156875365298,0.03322704698279554,34,22,63,56,2
0.0006304012536653617,0.0004089690695115145,0.06320679055870991,0.034705147996663334,28,22,68,53,2
0.0006209544135650745,0.00039438451872974434,0.06692316576160759,0.03310106264862692,30,26,63,59,2
0.0005870271510248494,0.00037917856014747363,0.06150104542385763,0.03319881715597238,28,24,61,56,2
0.0001258345947583555,0.0006029443478894848,0.015811395162048714,0.10284222961686998,40,34,86,74,3
0.00012252132181549022,0.0007129504352606918,0.01666231623920787,0.11622662279534206,34,34,78,73,3
0.0001431699889453939,0.0007122762534362924,0.019187912785944814,0.1107133659870062,34,34,74,77,3
0.00012172195375767017,0.0007812663207577118,0.017702969977528314,0.11771784955635976,30,32,77,75,3
0.0001437569317388454,0.0007702099035434318,0.019965586554902333,0.11062830982574362,32,34,72,69,3
0.00014663321301691215,0.0007287823995687226,0.019889378811030412,0.10029543770183019,28,30,67,70,3
0.0001302869521165096,0.0006566855838548492,0.01804255028288833,0.09704244380494685,26,34,71,72,3
0.00013232315293082333,0.0007132968901063555,0.019278759307671117,0.09636205837398866,28,34,73,71,3
0.00013115187146533753,0.0007491157421369781,0.018706329529162465,0.11039595341168362,28,30,74,68,3
0.00014184725407030994,0.000799588689314646,0.019370604622745414,0.12111457978569592,26,30,75,70,3
0.0001463419330221203,0.0008821137530456583,0.020683532323445816,0.12684113280224646,28,36,67,74,3
0.00013929753313425436,0.0007113793491678716,0.019346929925235977,0.11915795429542378,26,38,64,78,3
0.0001304800214766356,0.0006398467662386366,0.017723911418651997,0.10533403876184926,32,34,63,74,3
0.0001122819358721501,0.0006047812013176882,0.017019801674303822,0.0928815297429508,30,28,72,70,3
0.00010104993681350939,0.0005887809089648866,0.015540242715076796,0.08237566531896214,36,26,77,68,3
9.624749787268384e-05,0.0005658981086632273,0.015315733688340865,0.07606819355088379,36,30,71,76,3
9.807154293690055e-05,0.000545798291583791,0.015434781938752367,0.07203048517524711,36,36,72,79,3
9.825477300500668e-05,0.0005539233311292742,0.014784253041214302,0.07186511394123521,36,36,71,80,3
0.0001080234675258047,0.0005300684787135188,0.01540162046386609,0.07397658308140728,36,30,75,79,3
0.00012136460970802692,0.0006269327794980163,0.01796149445020576,0.09728891531829637,34,30,75,79,3
0.0001316882443328277,0.0007044804706378147,0.018531227323107472,0.11149421327267282,38,32,76,76,3
0.000139511144572453,0.000724488535178452,0.01875886363412052,0.110354154366182,42,26,75,71,3
0.00013313623541909007,0.0007346318518740077,0.018521863308474155,0.1134371466441257,44,28,73,79,3
0.00013627413157312065,0.000630261964156768,0.01697992569880263,0.09727188518037275,34,26,72,78,3
0.0003278193385204102,0.0003223552219834094,0.020897426337521726,0.02548443343730672,6,30,36,54,4
0.0004276331967923768,0.00018983526279011824,0.019731177578092347,0.019098194675514837,10,26,38,58,4
0.00042495517406129036,0.0001305585598991983,0.016234857621798073,0.013783621134853036,12,34,40,73,4
0.00042861781967951893,0.00010450552927691283,0.01433302462088444,0.011841881604056468,8,22,47,70,4
0.0004114844268214266,0.0001134110734554453,0.015396797277618663,0.012151421611126211,12,24,44,69,4
0.00024162031041402237,0.000119728734930028,0.011463697959085325,0.01098005466488539,10,26,50,68,4
0.00018397493259329032,0.0001460237917157431,0.009669852182091954,0.011299436570567138,12,22,63,65,4
0.00019410603837548493,0.0001347936582389456,0.009876962079410826,0.010905674463750866,6,24,51,75,4
0.00011408325962677982,0.00013891121428171623,0.006293303272710178,0.011637078837634256,6,24,68,61,4
0.0001326464205342742,0.00016309937444139498,0.00658036652826363,0.012404071726516435,4,24,68,60,4
0.00106131839060173,0.00018705499973457063,0.05816856363767327,0.014287258661806145,4,28,60,58,4
0.001212863752175529,0.00021438460097274612,0.06506217067612219,0.016472663445903785,10,24,51,57,4
0.001302222976285658,0.0011167664402647551,0.06863498022524757,0.06515717675556106,12,28,37,70,4
0.0012212338482827073,0.0011084518036556473,0.065876004669212,0.06392630712231934,10,20,32,77,4
0.00047570515466369254,0.001045668811561316,0.02128176927836744,0.06012159777920362,13,10,52,84,4
8.701812199186972e-05,0.00014381298235008845,0.007367623646172058,0.013646938975861632,6,20,73,58,4
8.865489131218429e-05,0.00017150933150317476,0.008212301456814322,0.014041225061443173,6,24,73,50,4
9.256588382501641e-05,0.00016496455879085644,0.008085512984135821,0.011758157384340107,10,28,79,51,4
8.856417787546416e-05,0.00016024403543258385,0.009239970513860142,0.01153265754231881,10,30,71,50,4
8.824084081420673e-05,0.0001435229811683365,0.009120297719854682,0.011047485501671842,20,20,73,59,4
9.01313716728096e-05,0.00012216236065917436,0.010079846529540519,0.01059348005148834,28,22,69,55,4
0.00010640769189881877,0.0001375132948976961,0.012171679174507184,0.01332654660570561,28,24,73,68,4
0.00010887405794610248,0.00018526356289236043,0.011245767327439052,0.015134073685088293,26,22,70,62,4
0.00010761674667798594,0.00017024145790113445,0.011765352812121078,0.015030213331979818,24,28,76,63,4
