f1ch1,f1ch2,f2ch1,f2ch2,f3ch1,f3ch2,f4ch1,f4ch2,Category
0.0005659477636731708,0.0007655942553825559,0.06945944635683546,0.08848163125372427,28,26,66,58,0
0.0005493524448532226,0.0008162222479822046,0.06437607964445966,0.08970121618607264,28,26,63,55,0
0.0005082755740019078,0.0007164304782571307,0.061216646794004494,0.09018968422228989,34,28,71,59,0
0.0005483619760236944,0.0007017315234122436,0.0639779486912006,0.08824580285488506,30,30,77,62,0
0.0005404703040453485,0.0006536164875556935,0.06637692370804042,0.08687327534440854,32,28,76,62,0
0.0005681780078180898,0.0006287533473808529,0.0698702594544767,0.08976407115570702,32,28,77,61,0
0.0005533005253689484,0.000709880258776885,0.07076231387091225,0.0890225854487096,32,24,70,59,0
0.0005259551091217748,0.0006805856551857554,0.06879416855690937,0.08619123190434147,32,32,67,57,0
0.0006283332893267956,0.000600994162623405,0.06783752749877893,0.08038825252661352,20,28,73,62,0
0.0005814492282065543,0.0005794932483417713,0.06643971329496676,0.07056169256383969,30,24,68,69,0
0.0006393764542053371,0.0006128050083411907,0.06545787828590073,0.07168908780009149,28,26,72,71,0
0.0005941497282225382,0.000589968539592021,0.06324083963754652,0.07306981682670238,32,28,71,71,0
0.0005039620002235816,0.0006163477850494764,0.05623228506774878,0.0762049485274587,28,34,72,68,0
0.0004863977855049044,0.0006047509481433803,0.051399273722621944,0.07563463135011934,28,30,72,65,0
0.00038201210303426893,0.0005572647007348438,0.04510563648750295,0.06745743738227222,28,30,81,66,0
0.0003914706532210877,0.000538930768953944,0.04400265611295195,0.06002420319455793,26,24,71,67,0
0.0004686649193710159,0.0005997576774470271,0.0496497633302819,0.06320282338137612,24,24,71,65,0
0.00042308844470952974,0.0007111897478583699,0.05361441664036191,0.0703735400062435,22,24,69,60,0
0.00047331757073884167,0.0007480780046362627,0.05862937911252593,0.07549039691832075,32,28,71,64,0
0.0004860979504078468,0.0007002999953387549,0.06171425640244726,0.07872087476521303,30,26,76,64,0
0.00048617342204233376,0.0006186044505511279,0.05707584959720059,0.06867428802763814,26,22,74,69,0
0.0004261664519304272,0.0004631302826385137,0.05584834090197743,0.06078269289777087,22,24,71,73,0
0.0005103253857059201,0.00039917918515420023,0.054998320906431926,0.054325568282408525,20,28,66,69,0
0.00044740182364884736,0.0005335172791598689,0.05332265307973691,0.057291802168785044,28,18,69,65,0
0.0005353298416873149,0.0005372082027170893,0.05720472116972357,0.06323514195505281,20,18,58,58,0
0.0005160545125731883,0.0006058587222295861,0.059867047908904035,0.0723986989270613,28,20,57,58,0
0.00048178138305266205,0.0006389822578842515,0.06436803259478797,0.07977459246100017,34,26,61,57,0
0.00043947950557537247,0.0006199291171006986,0.06340514732180776,0.08012775638573941,36,26,70,58,0
0.0004345795829699922,0.0006292120817861349,0.06432076221335445,0.08622587089107131,32,30,78,62,0
0.00041157672523305723,0.0006428291279956856,0.06033011484232289,0.08307263664869097,34,32,79,62,0
0.00039656067571671914,0.0007073825840001412,0.05644764908584752,0.091057231724164,32,30,78,59,0
0.0004540535936641608,0.0007452401309717273,0.05915348593732946,0.09027051874527339,30,24,71,63,0
0.0004531158486438523,0.0007158353536876034,0.05833504045350113,0.08819154459428893,34,26,72,58,0
0.0004459305521832747,0.0007004534575852356,0.059308271498932856,0.08718201780692121,36,24,69,61,0
0.0004404169755251609,0.0006017303936199324,0.05961358552508369,0.0773740862837344,40,26,70,63,0
0.0004388596658057233,0.0006726529548142162,0.059552032047378134,0.08218362899942937,34,24,68,63,0
0.00047619560192234433,0.0006619596019148337,0.061849555555599164,0.08038531491310835,28,28,65,69,0
0.0005229253414046732,0.0008003781773990913,0.06249524314561324,0.09184218947213536,32,24,64,65,0
0.0005017391872092677,0.0009142016797379401,0.06025504475651808,0.09876167618169308,28,28,65,56,0
0.0006472247304963041,0.001313341043143842,0.06377416532551927,0.11837303050801565,22,20,59,64,0
0.0005697493994808296,0.0013170874895635923,0.06182672817033981,0.11883194652147824,26,18,60,58,0
0.0005301551175390906,0.0012133931714555064,0.057789184626634786,0.1127742279777064,34,18,66,51,0
0.0005647526452184427,0.0006673490851182337,0.06483938016989406,0.08515997815426957,38,28,64,52,0
0.0004911067240480778,0.0006472161725615866,0.05953094572929283,0.08503343197167805,28,30,66,54,0
0.0005180101766150643,0.0005505873541021967,0.05778334947565358,0.07807253148174483,24,30,62,61,0
0.0005512971082895566,0.000577668623049938,0.06424340492470948,0.08205257866755179,26,38,63,64,0
0.0005370124599238118,0.0006391923357949408,0.06205815710286911,0.08797601438911935,26,30,60,69,0
0.0005337050462869879,0.000729181794155471,0.06221946136474875,0.09268906248490663,30,28,70,60,0
0.0012903775080061958,0.0010983428175556883,0.1666322772363301,0.12384460622200166,26,28,63,49,1
0.0012307460326398576,0.0011728512458029248,0.14816557720897672,0.12840999176537346,28,22,62,57,1
0.0012332148635136782,0.0009646705730816435,0.16654180055078088,0.11883634812789504,30,18,59,59,1
0.0012860525997877542,0.0010112122282086525,0.18358564568119023,0.12069125478264317,32,22,61,59,1
0.001211839256330089,0.0009789203053616631,0.1834891987286724,0.11566136482834946,28,20,67,59,1
0.0012924160845865951,0.0009594308482711576,0.1920520466493776,0.11058718913774622,32,22,69,65,1
0.0011638553193876735,0.0009169229756909149,0.17499425556402903,0.11363255865677825,28,20,66,64,1
0.0010617429631365966,0.0007962077145644732,0.16118217837763593,0.09850993164716328,28,20,66,69,1
0.0009798874325437216,0.0008246010018671677,0.14750477390724845,0.0912281905573306,32,20,69,71,1
0.0009113397995984168,0.0007984242771649293,0.13574614113768918,0.08360760120702841,32,20,71,69,1
0.0007954935781237443,0.0007957217240399334,0.12854957504199901,0.07528896953278763,34,22,73,69,1
0.0008375375353170564,0.0007896401660163468,0.12730203761187509,0.07968943841852828,30,18,72,62,1
0.0008184019511423244,0.0007420402620222595,0.12634019100873306,0.07562681613841872,34,20,79,65,1
0.0008478005091744005,0.0006787560944866912,0.12600539903258537,0.07253267889694519,32,18,75,66,1
0.0008471202554318166,0.0006443663121062414,0.12399177701805975,0.0736172647104399,32,22,75,61,1
0.0008018647679213598,0.0006163736536986493,0.1228156324401616,0.06470073029381891,30,22,78,65,1
0.0008970132199039166,0.0006107951022421248,0.1315947188386612,0.06411714808763092,24,32,73,58,1
0.0009284946264531062,0.0006463694017653306,0.12992130667685126,0.06683406836050644,24,24,78,57,1
0.0008628819251378332,0.0006517500226406126,0.12409644806482985,0.06490110831746046,28,24,79,58,1
0.0008730936279046812,0.0006623911080043881,0.1176364154626081,0.06815716058156965,28,20,76,58,1
0.0007893716689343408,0.0006300496044903953,0.10880876155936117,0.0641720475788153,28,24,74,64,1
0.000715780628813887,0.000567510606683286,0.10222564538402613,0.061135162890815616,32,26,74,70,1
0.0007069770026101825,0.0005248716108529606,0.10047031974106335,0.05802034467837292,34,26,77,68,1
0.0006816149574592658,0.0004774969513694139,0.09937024207881588,0.054772866199896714,36,22,74,73,1
0.0007222099708690229,0.000649830074275759,0.1008578998936958,0.0668310781458514,32,16,75,66,1
0.0006887132522486019,0.0006316154659288572,0.09041839083152163,0.06271989676018185,24,16,73,60,1
0.0006819727365880114,0.0006130320111576453,0.09227585784305779,0.06278266977271113,24,20,71,59,1
0.0007311395946033989,0.0006551086691231275,0.08770383182226288,0.06654069902242683,24,18,73,53,1
0.0005844003876603965,0.0005052888814338012,0.07986511511825985,0.05619676866398893,28,24,72,57,1
0.0006087531482250524,0.000554608617312354,0.07907558565867649,0.062394250280744044,26,28,69,55,1
0.0006661017146064401,0.0005213700607018211,0.08460687934784755,0.06401012532075621,26,34,68,60,1
0.000571245240046568,0.00046686694243064895,0.07962066290283007,0.06024893500084855,30,28,64,61,1
0.0005503703311242435,0.0004823400680487668,0.07769205119578995,0.056711524439453834,28,25,66,66,1
0.000567433683673021,0.000537140479424829,0.08338666492862458,0.06331046717372518,30,20,64,64,1
0.0005400052163517409,0.0006151817950501827,0.07651263668397623,0.0667992813072032,32,20,65,68,1
0.0006108421668019125,0.0007192632740141394,0.08743753688496567,0.07019026302805542,36,20,63,64,1
0.0006222320309038818,0.0007856083847884399,0.0903930019788702,0.07501401938569607,40,22,67,57,1
0.0006032813081204486,0.0007030259150728413,0.08874558152922438,0.0757498038355194,32,24,75,59,1
0.0006056311165038787,0.0008083727806604044,0.08425695802586321,0.07999640789843682,34,24,72,55,1
0.0005643707284870805,0.0012079007158617592,0.07391307824171212,0.09139009454463042,28,12,80,51,1
0.00047042936891288995,0.0011825882617025824,0.06126085252185516,0.08240428484028614,24,10,83,66,1
0.000453564730200226,0.00104122438590406,0.05518503260536292,0.0688965350627232,24,8,80,59,1
0.0004164060640277323,0.0003298317379646704,0.0551550886359805,0.03660856077567148,26,24,79,64,1
0.00045698354337209276,0.0003032775860298405,0.05972996583702284,0.03967535258335017,26,32,80,65,1
0.0005856833743483629,0.00034564790342293936,0.0717404703123866,0.04305259689513283,32,24,73,57,1
0.0006411140244039108,0.0003346155404639325,0.07385550513004951,0.041602230546229295,28,24,71,70,1
0.0006084333366610645,0.00036117289957380574,0.07265607565693319,0.04014525682164643,26,26,76,75,1
0.0005617573116069123,0.0003897368563144174,0.0726017978404347,0.044062609439163306,30,26,73,72,1
0.0008120000336758454,0.0004610272617658628,0.12510304228772304,0.042761338152167504,38,24,74,69,2
0.0008963245253699112,0.0005827013057166237,0.13237585462890036,0.0486596797365273,38,18,75,57,2
0.0009139064219679489,0.000544938807620146,0.14226012408056388,0.053651780406651695,42,22,79,57,2
0.0009742820411706175,0.000624213838344447,0.1344492681581563,0.057611546221436605,30,20,83,52,2
0.0009168819254205769,0.0006031032860967512,0.13367809026491137,0.05445543595206691,40,18,78,57,2
0.0008527774428761366,0.0005762384021851594,0.13617754579516914,0.04946179254568881,40,14,78,62,2
0.0009202924560428906,0.0005450903838774845,0.1346698175730052,0.04711758871033466,38,22,72,64,2
0.0009460264127866701,0.0005494421865008842,0.1421833498324094,0.04381047348439718,38,22,69,61,2
0.0009541708287478677,0.00048796341582600986,0.1366344144945362,0.045121461056090446,30,28,67,67,2
0.001023274693710441,0.0005330601601070818,0.1360087891669327,0.04998685555416594,34,20,68,63,2
0.0009856246007488333,0.0005191057573030984,0.13082444176051736,0.04961186002831783,36,18,69,58,2
0.0010288610416326076,0.0004847554440542486,0.12826560631114187,0.048516646224794645,32,16,71,65,2
0.0009553828190033237,0.0005251740196420102,0.12825908157789465,0.04638323727623917,38,18,72,55,2
0.0008695640252338827,0.0006018560720286389,0.11815320612055866,0.04916540648624164,36,24,82,53,2
0.0007421108405897794,0.0005447456595446417,0.10744659851299539,0.046640586624734935,32,16,83,56,2
0.0006907361625080283,0.0006171639564467256,0.1047621944415775,0.05025869944428975,32,18,84,47,2
0.0006931882789107885,0.0006725775262856088,0.09514286484357458,0.05180017165418871,30,20,85,53,2
0.0006315398970252364,0.000528213413572898,0.08956356774458303,0.045896573447500436,34,24,82,57,2
0.0006108555542421711,0.0005724101932295957,0.09015437638736644,0.04549613973128631,32,18,74,50,2
0.0006166180673713889,0.0004654237393723782,0.08771026522950418,0.04263569979974023,40,22,74,59,2
0.0006317318758238999,0.00046103947531968655,0.09288877928682818,0.04216644986373171,38,24,71,59,2
0.0006156907265364357,0.000543233832741073,0.09029316416834861,0.04552466636769471,32,18,70,54,2
0.0006122142215424815,0.0005556780117683411,0.0868020472720383,0.045771471965694296,30,18,75,52,2
0.0006505816390541592,0.0005835645015883996,0.08600917970399939,0.04521780598818074,26,18,68,57,2
0.0006964637048577718,0.0006357484877868427,0.08718930121597056,0.04328040652546155,30,20,63,58,2
0.0006965268456238797,0.000465546689636738,0.08659755616530047,0.03838007722897674,30,20,66,69,2
0.0006704111054029126,0.00044743116654508234,0.08943414562171187,0.03841345271326292,36,19,68,65,2
0.000745239409724335,0.0004077961641729357,0.08768357280391167,0.03618793138340957,26,20,71,69,2
0.0006308287699276429,0.00039328614691166135,0.07854053124004823,0.03331944248425551,36,22,79,69,2
0.0005918411887274326,0.00040545931182743724,0.07972376485334057,0.036272458167937116,34,22,78,65,2
0.000579041745078023,0.0003949756616145603,0.07743901153740775,0.03368043322788092,32,26,83,66,2
0.0005482767685022515,0.00040439078278135213,0.07553511175934982,0.03618712347344806,34,20,81,67,2
0.0005519827038910233,0.000454203434113797,0.0793123994139479,0.03933146715530719,38,19,71,65,2
0.0006175608371332156,0.00045821565194749446,0.08046537937926965,0.036927904000785675,38,24,70,65,2
0.0006398174827094338,0.0004539456506171106,0.09311138832758221,0.038166602684434406,32,22,70,67,2
0.0006469434175318496,0.000399502246686348,0.09587461951471409,0.034393787140479935,44,18,66,64,2
0.0005915481794666217,0.0003784347780685978,0.09401894399558082,0.03274940237094673,42,32,72,75,2
0.0006087996823562087,0.0003728431080028181,0.08919410010508917,0.03348069934287945,38,28,71,75,2
0.0005180341023769385,0.00037373349349615226,0.07875012294431225,0.03203871300405692,36,28,72,74,2
0.0007643924328443308,0.00040436334518420124,0.08076377135788038,0.032022530195997836,20,22,64,59,2
0.0006974159207316754,0.0003476695201180668,0.06920836836012018,0.02576873722070493,16,14,66,48,2
0.000608869585831878,0.0003908876816003698,0.05662001615826559,0.024658503542673134,14,16,61,35,2
0.00030919705788964245,0.0004087048821358609,0.037071082732845324,0.023953887087514544,30,12,61,41,2
0.0003298279704856153,0.0006736584973613538,0.037065160466795484,0.03825184667803524,22,12,63,33,2
0.0004058071888951569,0.001086843802514516,0.03947979956107121,0.06140101290911453,22,8,62,30,2
0.0003987060463965499,0.0011088669613004882,0.04115153552970829,0.06426839101914342,20,10,67,30,2
0.0004074216326401341,0.0011262678716524451,0.04079094869743267,0.06633643507951023,20,14,59,34,2
0.0003878725640243854,0.0008772888590781305,0.04344568053556784,0.05263597429507716,22,14,69,40,2
0.00036294175748371923,0.0012718394346758956,0.05060916426011617,0.16736952725484047,34,32,76,68,3
0.00035701346748990935,0.0012379798156062411,0.05049911075822593,0.16684962093129282,36,30,74,65,3
0.00032989921435812135,0.001152093842435383,0.046794518669140875,0.16688957716708167,32,32,71,71,3
0.0003517052348775356,0.0011795866664672976,0.04769471834510047,0.16354429970516288,28,30,72,68,3
0.00028565353245347256,0.001151917301309298,0.0435679069636631,0.15325149116605294,36,24,73,69,3
0.0002974276463072733,0.0010744916608607096,0.04192167465437879,0.13830964875898955,32,22,73,71,3
0.00029762594286489595,0.0010670934863751043,0.04382503139869928,0.13475546137897063,36,24,74,71,3
0.00030201164281423753,0.0007958597860791974,0.04339746150410074,0.11967641058081592,38,32,71,78,3
0.0003084122397554264,0.0007609376503813739,0.04430960237679817,0.12293387270758907,32,38,77,86,3
0.00030498656403481027,0.0008962508806779744,0.04201983044505226,0.12702198481554378,32,38,70,79,3
0.0002631791167124398,0.0008438955930379614,0.03699039499461192,0.12439075700788978,34,42,78,77,3
0.00023641319717041784,0.0008822464051713348,0.035602927847975155,0.12559703127243724,28,36,83,68,3
0.00020085204895417308,0.00075928751484163,0.0317004943271094,0.10988301032156049,26,40,82,71,3
0.00022745159997438486,0.0006485095358661352,0.032346608657024434,0.09535229569751259,32,38,81,73,3
0.00024596870939289724,0.0006371750175936654,0.03491274385421492,0.0935358115756383,32,28,76,75,3
0.00024277547596503963,0.0007140982980797181,0.03368817219924934,0.1009589634877252,24,28,77,80,3
0.0002556999217628518,0.0007293903513688986,0.035376392113237655,0.10338618370575033,32,24,72,74,3
0.00023036654578083624,0.0008514450727969546,0.03375667081809411,0.1106421544851843,42,24,72,75,3
0.00020568745941018272,0.0008395707880953018,0.03016751802474808,0.11356650351918468,38,26,78,75,3
0.00021534646572666992,0.0007358732132397929,0.032429265858693095,0.10659748540650635,36,28,76,76,3
0.00023150580808369286,0.0007830785571434768,0.03272618384488374,0.11060834857556538,38,28,79,76,3
0.00022915033505267583,0.000985525629782272,0.03258076581644366,0.11930864336841981,36,24,89,71,3
0.0002381439235195703,0.0009122272136248264,0.03458009869620102,0.11272202810199697,38,24,85,72,3
0.00023512218443015508,0.0009588259428208668,0.03260202736665723,0.1077346209800007,32,26,84,65,3
0.00022693015236340908,0.0009359195797608152,0.03276392449263847,0.10275036742133553,30,28,83,71,3
0.0002302300819031207,0.00080473351072074,0.036510294162230374,0.09609595704708694,30,32,79,74,3
0.00025450016303445904,0.0008986400461655783,0.038414790086358924,0.11592765315381076,34,40,77,71,3
0.00023931136817283483,0.0008998329933250362,0.03800741130579604,0.12340076914329824,26,44,81,71,3
0.00022421557181406842,0.0009139956058422979,0.0359982386736966,0.12853301844771192,28,32,79,69,3
0.0002102516112707266,0.0008460993283137354,0.03453825846332612,0.12737729488024802,26,34,79,72,3
0.0001906246350544652,0.0008179277810736314,0.03054785920984773,0.11600658451315114,30,36,75,73,3
0.0002056115978242774,0.0008834239369851654,0.03418319513852305,0.1239860115088423,30,32,75,69,3
0.00022720123040704369,0.0009353907071746037,0.03591451929417411,0.12197110652148244,30,30,72,70,3
0.00022702023683786652,0.0009570233467060804,0.03429773983867512,0.12856812445386467,34,30,71,71,3
0.0002416930830873512,0.0009720026191020826,0.03598276760756172,0.1385152838098116,36,28,68,67,3
0.00023049581809722884,0.000907491189317617,0.03478542482777688,0.132939593192133,38,32,70,70,3
0.0002545081490711551,0.0009411668745610059,0.036566600261933535,0.1385392424087925,30,28,73,73,3
0.00022589156380691206,0.0008040362086395521,0.03556643948883959,0.127096007780316,34,38,69,79,3
0.0002132804178942829,0.0007785788589581052,0.03241340086324452,0.11769231408855808,30,40,78,74,3
0.00039392807158980525,0.0020016018537490805,0.04241553143860469,0.19074728046849357,16,10,74,71,3
0.00038386661243798413,0.0021884063424772956,0.04482122998835368,0.20346148434010136,24,14,69,65,3
0.00043106593173415474,0.00227967226557542,0.05066997584925862,0.20998712947233428,28,14,71,63,3
0.0003967271562823797,0.0010714844340853494,0.052081822388072255,0.15759164644846355,30,34,70,68,3
0.0003496799488171199,0.001012540235409342,0.047269161641893744,0.13740842780095675,32,26,72,68,3
0.00037870830616302197,0.0010118587059340246,0.04797153081909815,0.13811609171847997,26,32,77,66,3
0.0006578035573499762,0.0010909375375961683,0.04940570607326713,0.1461670375793188,14,30,73,62,3
0.0006473133723162246,0.0011697858884070949,0.0483210502806396,0.1501988480429265,16,34,69,59,3
0.0007688107000033914,0.001230640921609449,0.053062154064774034,0.15986599948864963,14,30,66,53,3
2.4115130121966715e-05,0.0001182354677006227,0.0032469346065085395,0.00851264909645318,28,26,89,60,4
2.343604583915746e-05,0.00012711810249012095,0.003114957537750616,0.008735192666562476,30,16,85,68,4
2.3406497516123614e-05,0.00011923058016510686,0.0029658570319781798,0.008474726729383762,22,20,85,66,4
2.1706658065019464e-05,0.0001295506296225429,0.002957218175433851,0.009065393071725807,28,20,91,60,4
2.1342743362768347e-05,0.00012161627026176469,0.002887910181669281,0.008697034352073973,30,25,90,60,4
2.149240193790577e-05,0.00011293563242640892,0.0030867240298177384,0.008320161446425724,34,20,94,59,4
2.4150537119548092e-05,0.00011226917147357303,0.0033769416872077873,0.008158667952749273,32,19,93,66,4
2.3314673962127664e-05,0.00010311379814296933,0.0035984857056956527,0.007774434073341611,51,22,101,54,4
2.3079870045729493e-05,9.94880636134999e-05,0.003777791691163359,0.007852797449456987,40,28,106,67,4
2.283126431302667e-05,0.00010087271150200749,0.0034740491563564416,0.007696835085307722,38,20,107,58,4
2.1731291199382284e-05,0.0001029778654105804,0.0032416484705075376,0.007976450881919964,34,26,113,58,4
1.934621051971862e-05,0.00010498920515063648,0.0029728758786831525,0.008004733246078878,42,18,110,58,4
1.9648457546190394e-05,0.00010338082910205274,0.0028323905245293724,0.008060693392367504,38,26,102,64,4
1.8828715434888148e-05,0.00010416742034607489,0.0030343811185739333,0.008221025762277494,42,28,106,66,4
2.036190461871781e-05,0.00010470669217615322,0.0030458891640549567,0.008259313167156977,38,30,104,62,4
1.8439489519403217e-05,0.0001076360979562413,0.0027877328368984752,0.008411861348917225,38,24,106,58,4
2.108291759477502e-05,0.00010657941824312013,0.0029675339122848796,0.00820487832892562,40,30,109,60,4
2.0748969288595383e-05,0.00010733564904393206,0.0028113719971119017,0.008439886210167715,34,24,105,58,4
2.0723915576775414e-05,0.00010765045679136057,0.0028629118023606897,0.008306275840971456,28,22,96,54,4
2.128043741652242e-05,0.00010566526625456989,0.0029617981215380937,0.008003100251585274,28,22,96,54,4
2.2102960033598398e-05,0.00010750498840905646,0.002899754534709243,0.008002038871189191,38,18,101,56,4
2.0985871391710535e-05,0.00010858899289138598,0.0028131765436640614,0.007814222817723393,36,23,99,66,4
2.047684594259087e-05,0.00011249744444571831,0.0027883035720698006,0.008005781861596322,31,20,96,65,4
2.0367939764085527e-05,0.00011793032000807641,0.0029611146457652606,0.008064976399339363,28,23,94,66,4
2.0784595852589575e-05,0.00011889823726195979,0.002949463476788262,0.008235944427463532,32,24,92,56,4
1.903898306720309e-05,0.0001221082615659022,0.002940725432787277,0.008372979209313897,40,21,97,56,4
1.927627325277886e-05,0.00012130854258901919,0.0030207782110279156,0.0085675097432797,39,14,104,51,4
0.00020811672971892848,0.00022363089396380134,0.012821093911189128,0.01545694255737123,4,10,82,41,4
0.0002937353446338764,0.0004130481539281132,0.017139279809240196,0.026110553284993804,8,8,79,55,4
0.0003060917375657225,0.0004416023358155006,0.017674714476367277,0.026936667115879907,10,10,64,45,4
0.00013567680110104766,0.0003749677761344909,0.009493514629296986,0.021952061045832545,6,8,75,44,4
0.0001312589117260321,0.00034823442695128336,0.00991530507363236,0.021386894623617505,8,6,67,54,4
4.851232447714528e-05,0.00015731500426076423,0.005816078481134516,0.011275981208797713,32,16,84,68,4
4.842232585466678e-05,0.00015186236091366568,0.006388613277495682,0.010973199956202362,34,12,82,71,4
4.4990858382704415e-05,0.00015266636597087885,0.005784405681318732,0.010927178593361574,36,12,87,57,4
4.67734441947654e-05,0.00015474240764416926,0.005848559485201544,0.010336754669502544,32,14,75,55,4
4.508761461128704e-05,0.00014162369115077995,0.005601423260205204,0.009518603729684069,28,14,83,54,4
4.4473469937232404e-05,0.00016023508970007503,0.005263922377987686,0.010061053389753254,19,20,89,57,4
4.6148113071524047e-05,0.00013679886568609647,0.005323981839960676,0.010305484518179786,32,24,87,59,4
4.064339949590692e-05,0.00015885720987012571,0.005452352863459175,0.010917851206060758,44,18,94,56,4
3.9381295316502475e-05,0.00016081509095092555,0.00518941003387597,0.011316185422996856,38,24,94,60,4
4.308153033925598e-05,0.00013561105139558454,0.005009205053444589,0.0100567185801865,29,18,85,58,4
3.635965567053731e-05,0.00015234182551914066,0.005137690255275785,0.00987647770932535,28,18,88,60,4
3.7493975588566924e-05,0.00018058559443098605,0.0050465704303404935,0.010250343292664981,26,8,85,58,4
4.027461699605205e-05,0.000192476242718632,0.005530967587085507,0.01012870939795313,20,9,84,46,4
3.784752336369863e-05,0.00019368186697313672,0.005462958471127384,0.010755980364626112,32,10,87,56,4
4.019054227603291e-05,0.00017125749964539555,0.00567871007937461,0.010641545085558696,28,15,87,55,4
3.85787088911385e-05,0.00014206865888561303,0.005585952932036938,0.009982105884362722,32,14,91,68,4
0.00042985648877312093,0.0006866540837720328,0.05359575356398055,0.059495233242022175,24,18,68,59,0
0.00045486904330087493,0.0006866113122929726,0.05276571618924875,0.0594289654820632,24,18,71,59,0
0.00046151978618285967,0.0007707847554193175,0.052361974069243984,0.06550150218764197,20,16,69,60,0
0.0005006810462898021,0.0007638030038495778,0.053173039204996386,0.06637729720625851,22,18,66,56,0
0.000439177585024978,0.0006071715473166892,0.04674272034053801,0.06203330862522956,24,20,64,67,0
0.00040911659958082396,0.0005505596959356147,0.04617905318933017,0.05526788245841956,28,16,66,65,0
0.00037720160654225015,0.0005129457078357388,0.044012219217811656,0.055012723346154105,26,22,74,68,0
0.00035495637785247324,0.0004859932562682166,0.04169290097818659,0.051887533646582704,28,20,69,64,0
0.0003523318898625611,0.0004890331879573429,0.03962489266172468,0.05034211638126935,22,20,74,60,0
0.000529762029870151,0.0009703854466042301,0.05782393878996401,0.07866761197874454,16,12,79,54,0
0.0006374170156852577,0.0009224281090309761,0.07622962788587559,0.08125800643596384,18,10,78,54,0
0.0006990770150091473,0.0011216253464367606,0.08645424652240542,0.10317025461529702,20,14,78,51,0
0.000849230477751096,0.0011096059766074705,0.09992847979024846,0.09976249646237635,26,24,73,59,0
0.0007845115292762406,0.0009660396854819042,0.09713928772066507,0.0991165946906998,28,20,72,59,0
0.0007483169933303827,0.0009452513095535923,0.09164996084309948,0.10341881665489515,24,24,66,56,0
0.0007724477415711449,0.0008907681965492198,0.0959071681150169,0.09565172002819389,18,20,68,60,0
0.0006981891922077118,0.001056506448218206,0.0952661772776527,0.10771587063212536,30,22,75,53,0
0.0006565865453768168,0.0008653037148395746,0.09208269740576944,0.10205825946427456,28,20,76,59,0
0.0006391819273593744,0.0008736072062944957,0.08864960380544629,0.09256293008114758,28,20,79,58,0
0.0005917290341057141,0.0008731884653329276,0.08436047715138512,0.08305757581660939,26,20,72,56,0
0.0005635584690812413,0.0006853749887778298,0.07900695403036054,0.06761291365150784,28,24,69,57,0
0.0005238446098918207,0.0006900391478779746,0.07490554433612137,0.0704764116623156,30,28,70,54,0
0.0005051955345428264,0.0006385654132301339,0.07098664548839925,0.07055391116340179,30,24,74,47,0
0.0005774585503690256,0.0006633537841896097,0.07488542475306063,0.07455937931626258,30,24,84,47,0
0.0006413647378939269,0.0006330646631640329,0.07763866454360727,0.07022411541618385,28,24,81,54,0
0.0007205780708083341,0.0006730099013923909,0.07477554409897272,0.06744805164317508,16,26,74,57,0
0.0007510740901122951,0.0007684444196165377,0.08198855284749561,0.0709900836308779,24,30,68,57,0
0.0007146480458763293,0.0009080647580954599,0.08007414330286507,0.07215646008746963,32,15,63,53,0
0.0007180519844070983,0.0009234085252751163,0.08490332091845461,0.07729571488578284,26,24,60,47,0
0.0007505109483303961,0.000956675769429415,0.08504945727747348,0.0743267347292324,24,20,62,51,0
0.0007403928323613879,0.0008208814727957123,0.08483667737218271,0.07041185673920065,26,18,69,53,0
0.0006853338204432165,0.0007137569572132412,0.08016332646537808,0.06516059568353645,26,20,72,52,0
0.0005981991779527417,0.0006058307796196092,0.07089635743258675,0.0648614904856611,30,22,80,61,0
0.000603389784495393,0.0005847037193505335,0.0734154823474902,0.06339264194721202,28,26,73,56,0
0.0005384409304103587,0.0006028218107928267,0.06683778284340389,0.05888743192957388,32,24,78,58,0
0.0004815309777843414,0.0006462015255112234,0.06295792114919826,0.05651125998826758,34,20,75,56,0
0.0004709693301916279,0.0005323376966447553,0.05925673911172609,0.047714176649637625,34,24,74,61,0
0.0003881138047291358,0.0006190041184490456,0.05372559524402438,0.05499431632807129,36,17,78,64,0
0.00038500738497156866,0.0006541955580441761,0.05404647486513471,0.059758104402196116,28,14,80,64,0
0.000444903127091389,0.0007162088143931382,0.05760333126821957,0.06317428612783232,24,20,79,63,0
0.0005638785286353098,0.0007180736514943186,0.06918433358909573,0.06624449483831424,24,20,74,56,0
0.0005560308872039277,0.0005966138054614081,0.07185032489522986,0.062312822646727974,22,24,77,57,0
0.0005964324136069447,0.0006451367172065943,0.07541186602144707,0.058552517704610986,24,22,71,60,0
0.0005506827138779272,0.0005740552499076745,0.07492417500891312,0.05562387058666048,30,24,74,60,0
0.00046410099085282585,0.0005177439642993911,0.06280907755708884,0.054229274039670074,28,26,78,63,0
0.0004235284568027225,0.0005104455347760563,0.05822594526608558,0.050058386724469404,30,24,75,59,0
0.0003986515767088321,0.0005288034196458787,0.05533386745749396,0.049390545055307565,34,22,80,57,0
0.0003454124541931908,0.0005811401934414008,0.05249829930359072,0.04940240008029199,34,22,83,60,0
0.00039515125601394274,0.0005750160876978311,0.05667722831950448,0.049467384134563655,26,20,78,59,0
0.0013093223997661368,0.0010819351028270364,0.16966674127324108,0.11841545573843958,32,20,73,60,1
0.0013266576209557531,0.0010980010329673694,0.17507079287293018,0.1296881712051849,32,26,73,66,1
0.0013916084432373799,0.0009562767704606046,0.18457734738449588,0.12104493993751407,32,26,73,69,1
0.0013024668852996961,0.0011518043819818689,0.18520495435080303,0.13354560510937302,30,24,77,69,1
0.0012850022448659822,0.0010061206291647167,0.1801199055747218,0.11812076034030622,30,28,80,67,1
0.0013142934212608051,0.0010577132188566475,0.1834464204780045,0.11142238743627546,34,22,73,63,1
0.0014152396059537197,0.0012130661728887505,0.18292248758137308,0.12228925949373354,28,20,71,63,1
0.0014902594968679332,0.001159605952995799,0.18876356234214509,0.11757198147235579,26,18,69,65,1
0.0014962994073172459,0.0012051388479363816,0.18772790780841908,0.12333709354357655,26,16,66,61,1
0.0014559323524946245,0.001352952432733226,0.1910378167918367,0.1272410821281829,22,20,64,61,1
0.001254466046123877,0.0011069803849920745,0.17159201933021367,0.1197180091376514,20,22,62,56,1
0.0011174782771699566,0.0010137050672922997,0.15375135976403315,0.10812723871734022,28,18,67,59,1
0.0010158034478740586,0.0007391988837839776,0.13553601687854844,0.09382436242555042,30,22,78,64,1
0.0009362165596210554,0.0007377656515296041,0.12672139555920886,0.09069220381161668,30,26,66,57,1
0.0009750343070165021,0.0006959934898655328,0.12855228637739494,0.0846698849787857,34,30,67,61,1
0.0010457870168412487,0.0006941651881956402,0.13713864593986497,0.08591865162638472,28,26,65,56,1
0.0009956717031447326,0.0007531151654743064,0.12859286174760653,0.08404142786251619,30,28,69,57,1
0.0010575219840248582,0.0008003199792692949,0.13305499854413824,0.08369902903752764,30,26,75,59,1
0.0011291486840160246,0.0009078109107080205,0.13576178795163163,0.091917658341146,34,24,69,51,1
0.0010866758759544236,0.000844896324034857,0.12950407182735846,0.09405031556318982,28,26,68,59,1
0.0011354089532035745,0.0007606746183419232,0.13244720777145153,0.08944615292609728,28,24,69,70,1
0.0012182699344932392,0.0007605847704411113,0.14836246430604527,0.09221933944181544,28,28,66,71,1
0.0011949415000691722,0.0007138106566201009,0.15169969750671658,0.0863171937579385,30,22,66,75,1
0.001303049350821864,0.0007037536106905505,0.15520867985721543,0.08319109995935474,28,24,57,64,1
0.001191729023339001,0.0008073985705129644,0.15180569060869117,0.08422899465207574,24,24,63,60,1
0.001012758838852585,0.0006518643004188793,0.1364143588564622,0.0793692249442285,22,28,67,58,1
0.0010190651556938345,0.000681752837881115,0.12985299899028643,0.07765747204850038,24,28,71,57,1
0.0008779803035762212,0.000709250742786942,0.1197659149172174,0.07907339754461902,34,24,71,63,1
0.0008406683026527835,0.0007928031397207167,0.11682528225169603,0.08570182882085785,32,26,70,67,1
0.0007911373445823501,0.0006714753071963927,0.11921487089073911,0.07885520716854677,32,32,66,73,1
0.0008022000751796679,0.000734858402210156,0.11691720023830314,0.08259771138250441,30,30,60,68,1
0.0008110479628882217,0.0007260661150149527,0.11127666781734769,0.07646367656259632,24,24,69,63,1
0.0007667115072336389,0.0006199589627322328,0.10052063651803307,0.07165173174013145,26,28,63,71,1
0.0007173148427709394,0.0006344204245183496,0.0889921067949492,0.07145394712859461,26,26,65,66,1
0.0006795852999479185,0.0005540163050121922,0.08451550249542741,0.06513328811275779,28,26,68,65,1
0.0006374395235454641,0.0005119104798136826,0.0782903562213811,0.06107559427454475,30,28,69,63,1
0.0006148272079848312,0.0005732854735349225,0.07965285923392004,0.06335753650471511,32,26,69,53,1
0.0006924258958661975,0.0005225112172440363,0.08522450988166855,0.060689247236247794,28,24,64,60,1
0.0007204958794266965,0.0006088750705454034,0.07994228343388861,0.06373372711761718,28,22,62,54,1
0.000645817325495545,0.0005872910289876993,0.0737401088705465,0.06509958563327833,26,20,66,56,1
0.0006929695453469474,0.0005364134089508948,0.08045091063345225,0.058785936811904624,28,24,59,62,1
0.0005792964683670375,0.0005643477892869776,0.07050978197940186,0.056314198728356434,30,20,67,65,1
0.0005350925052384888,0.0005963825015621816,0.06896955295277057,0.05150448483762431,32,24,73,58,1
0.0005159732524007281,0.0005693380574970738,0.06764431605023763,0.04518602435315092,28,20,77,58,1
0.00046921395083380406,0.000567654602628494,0.06076889111145979,0.04462278904155497,32,26,78,62,1
0.000473306846013372,0.0005152293461622471,0.0594452056371429,0.04628642963865858,30,22,80,58,1
0.0005471114302664582,0.00044350330614622847,0.06487822178985084,0.050682133949918884,32,26,72,65,1
0.000606034161183356,0.00042710314360030186,0.07231171464677054,0.04918452570788248,26,26,65,61,1
0.0006034120236746983,0.0004558176339091158,0.07560980419337403,0.05510658285751644,26,24,62,60,1
0.0005406190311888377,0.0011800889278150292,0.08398406339545426,0.08170177656436643,32,16,86,31,2
0.0005111470400218563,0.0009504531423410644,0.080734878550839,0.06684966727459246,32,16,79,41,2
0.0004720118993500573,0.0009115235418509507,0.07739173769876774,0.06517456834420651,34,14,82,38,2
0.00045325729589689806,0.000869245719900559,0.06786954132160873,0.06367845664439425,30,12,86,41,2
0.0004801061733476281,0.0008028921440822598,0.06660400145059767,0.05945587087778104,34,12,80,40,2
0.000483581836891542,0.0007764093714017255,0.06619017921675374,0.058895936279704235,34,16,74,36,2
0.0004974779737181124,0.0008692556221564701,0.06786137489976954,0.060072189926211085,36,16,80,39,2
0.0005016737916780288,0.0008352106156025843,0.0700711449651016,0.059212872064633576,34,20,75,40,2
0.000500377572559674,0.0008199320170159479,0.06907364985504694,0.058038199266934924,28,20,75,42,2
0.0005211389737832015,0.0009784834848198306,0.06747696249445224,0.059508743897804486,28,16,76,51,2
0.0004987354699177234,0.0007978291164423115,0.05675047389996713,0.04924623151070945,26,12,73,45,2
0.00043742705791189116,0.000857385764650215,0.053253141534680186,0.044442965643503064,22,8,74,53,2
0.000494015384204927,0.0008855681979816404,0.060976450079980773,0.045057053559884375,22,10,75,42,2
0.0005074707623676009,0.0009748558368699481,0.0675129632925198,0.053364510852705715,28,14,75,46,2
0.0006200513791743839,0.0011405467885929747,0.07981305129881014,0.061339116183705945,28,14,73,52,2
0.0006328442594004265,0.0010935624342096155,0.08827607139669201,0.06256681188611495,30,10,75,45,2
0.000601686799177942,0.0007772948847454617,0.08379562308502572,0.051323925289265035,32,12,76,54,2
0.0006945053330979004,0.0008172814082877116,0.08549267536396978,0.05362359994452202,28,16,77,44,2
0.0007169939124538045,0.0007485748372859328,0.08934575261376049,0.05275235598940056,30,18,77,45,2
0.0007557305515695366,0.0007263820013803878,0.08970913262211727,0.052441732685922164,26,14,75,48,2
0.0008070966020409173,0.0006633544611306954,0.09069527294961346,0.051082109389895616,24,14,76,52,2
0.000743653507656002,0.0007613603399373056,0.08641856028532344,0.060311900914306535,32,22,76,46,2
0.0007936998001847854,0.0008995222484295745,0.09129624155664137,0.06779582547046963,34,14,75,48,2
0.0007775032034270675,0.000837143355400932,0.09450808939590657,0.06186056069386874,34,20,73,52,2
0.0007965179587673519,0.0008203717070349424,0.09708374190710241,0.06769439186016675,30,16,72,51,2
0.0008789925517294088,0.0008453012701216303,0.11286437997956483,0.06250138682093696,30,22,71,56,2
0.0007555159523058941,0.0007156566459508567,0.10188751602902582,0.05533050850953753,30,18,69,57,2
0.0007680849693237629,0.000873582467681816,0.10497593184866076,0.06271709304501087,28,20,72,53,2
0.0008340694776553114,0.000943128129373689,0.11067365867599782,0.06463177423136399,32,16,67,46,2
0.0007825050053407637,0.0011002382872750437,0.09864095668976294,0.0756577756703996,34,17,72,42,2
0.0008843292177966605,0.0011716786215562884,0.10374994033581503,0.07843482552194911,26,12,71,41,2
0.000811551025195577,0.0009895634323075569,0.10108507778344604,0.07180791350500465,32,14,74,54,2
0.0007314518626284004,0.0010605198588993997,0.0937519170471029,0.07566945313727133,28,14,81,45,2
0.0007538473003929702,0.0008335784037993004,0.09744160159258307,0.0634828037539616,28,18,76,45,2
0.0007248015855474597,0.0007210688978919826,0.09401649473211328,0.05847991374174214,34,18,73,50,2
0.0007558545672948424,0.0006762595450330914,0.09476800973003015,0.057370629877791256,30,20,77,48,2
0.0008397706980701886,0.0005516682797179133,0.106637634641726,0.04658487996790118,32,20,71,49,2
0.0008212487420127206,0.0005741403813433032,0.10408713542988302,0.04674677793916897,30,20,70,50,2
0.0008519899266410561,0.0006256053809467245,0.10730309064101208,0.049790938889368704,28,18,71,57,2
0.0008824744952496959,0.0006265791386462023,0.1138852280671845,0.047050062763109135,22,15,61,53,2
0.0008572784272215749,0.0007476223426531666,0.10083570040586273,0.05209794487067788,22,12,70,53,2
0.0008770836056666336,0.0009643705960319921,0.10202856275305568,0.06235624072854287,22,14,68,39,2
0.0008964976454988465,0.0009405302258956423,0.10133562765462213,0.06485827137154952,24,14,69,39,2
0.0007702613354265738,0.0008806467401144256,0.09303828431222988,0.06187694144570145,32,15,73,42,2
0.0007990347325680198,0.0008450207404563728,0.09548256222435855,0.06227018619214244,28,14,75,48,2
0.0006625827080246456,0.0006773180140826823,0.09242903745435448,0.05344207174779584,36,21,73,50,2
0.0006558465447956198,0.0006121525245133524,0.09322294377132043,0.04755456743274233,36,22,70,53,2
0.000759674213278493,0.0006401906505627586,0.09147908330827083,0.048295683765720764,28,15,74,44,2
0.0006830418416564682,0.0008130452164106018,0.08139965901307182,0.053571607581818795,26,14,71,37,2
0.0003916630426360345,0.0008423671366232819,0.04681344099444857,0.12081843117116071,30,28,76,73,3
0.00035249804589443373,0.000864954770430861,0.0459481932575407,0.13048949484947545,32,34,74,72,3
0.0003557011876712407,0.0009213394079391067,0.04766322309383668,0.13924470493014868,36,38,76,70,3
0.00030509298638953263,0.0010090835455310672,0.04674444655751947,0.13602748690279867,36,36,82,72,3
0.00033711290214968556,0.0009585418902649949,0.0451223959584601,0.13296770019549176,32,32,78,68,3
0.0002962798734276184,0.0009983054932994131,0.04241203828399581,0.1253461112310201,32,28,80,74,3
0.0003267697683645355,0.0009207159954119478,0.04208988237701489,0.11963177040594843,26,30,73,70,3
0.00034985561894064596,0.0008546862878967032,0.038188765045979865,0.11126338656121523,24,28,70,73,3
0.0003234766633151152,0.0008542564546853395,0.03717939947565758,0.10621000691579387,20,30,73,76,3
0.0004887097541878789,0.001179908109392846,0.04512016709655554,0.1165463946506338,14,18,71,67,3
0.00041577455191617573,0.0012626325604686891,0.043408414564234214,0.12136850874103118,20,18,71,63,3
0.0004048413898746968,0.001198034866305732,0.04265761682101272,0.1221781961391535,18,20,69,65,3
0.00023527200912328066,0.000813238658375137,0.03498637623520512,0.11701700576571232,32,28,77,64,3
0.000235725525444593,0.0008074678379546096,0.03542062954519276,0.11238891839731528,30,28,69,68,3
0.00023770918707650556,0.0007141145987725575,0.03471756019606061,0.09638319768773368,28,32,68,73,3
0.00022918373531659168,0.0007999711682593847,0.03395670482337399,0.09629957282677737,18,26,72,69,3
0.00021324486864751055,0.0006777269410922777,0.031031665013863733,0.08261433361250871,24,28,73,69,3
0.00019231069019152257,0.0006155978114991282,0.028273319960568196,0.07670170867786963,26,22,78,67,3
0.0001884622901197764,0.0005739735242083385,0.027416265649658652,0.07434518475027041,30,26,71,66,3
0.00017199854225664763,0.0005760224051752702,0.02681887774973087,0.0718063435195939,36,24,73,68,3
0.00016848785191145977,0.00058533572020209,0.026308458634361112,0.07641907032826908,42,24,74,69,3
0.0001636356617580116,0.000624444804189946,0.024697664162971644,0.07944178094525524,32,24,78,59,3
0.00016326047131894335,0.0006670884307355352,0.02213795871540125,0.08425466430317793,28,28,77,60,3
0.00016493101239106864,0.0006214993896041449,0.02098062260086874,0.07942213560720916,32,24,78,62,3
0.00015410225848040812,0.0006157612559812715,0.02107255138487725,0.0763634587262841,30,30,76,65,3
0.0001684243645742702,0.0005962256410117865,0.022653839546230313,0.07371050392856275,32,16,81,63,3
0.00014909784807030699,0.0005757159008308132,0.022982959131395145,0.0736331192000689,34,28,85,66,3
0.00014900343449363062,0.0006043306158027437,0.022517057587153506,0.07343342293846652,32,26,85,75,3
0.00014521435509311185,0.0005465483938085592,0.02152687341607323,0.0703538825526301,36,28,89,73,3
0.000134839886699522,0.00047001480085038876,0.01969921654418894,0.06446691597885595,32,24,86,79,3
0.0001374053079531617,0.00044453519687112116,0.018797665348889252,0.056191650883040546,32,24,79,75,3
0.00013902877196079398,0.0004156990934826821,0.020763792875069194,0.05390096815865833,32,28,81,73,3
0.00012759487924256596,0.0004524693529904405,0.020286636705198716,0.05116271144353418,34,28,75,72,3
0.00014519673123164525,0.0005504746175432146,0.020262157523398706,0.05455235756690189,34,22,75,76,3
0.00014818145140052156,0.0005263488282119777,0.021274130293012318,0.05440035998417475,32,26,73,75,3
0.0001532598996985337,0.0005002314275776599,0.020263635623690008,0.0563262032687798,34,22,73,67,3
0.00016019038733884708,0.0005257188349858742,0.0239797477817396,0.06234485796498641,30,22,75,70,3
0.00018826553834922903,0.0005222705563593623,0.02731750022510243,0.07143770089903283,28,32,75,63,3
0.0002456140176871239,0.0006732182622270741,0.03349646755982136,0.08910251569090344,26,30,74,75,3
0.00026632034730915215,0.0008354319662118012,0.036745622048819794,0.10366311705429772,30,28,71,67,3
0.00027612915379327945,0.0009032664516215777,0.037464999766860636,0.11043258035152162,30,28,71,64,3
0.00025930963450425555,0.0009190327690569702,0.036831767978864005,0.10628888221316246,26,28,69,61,3
0.0002546609779627814,0.0008839286253596797,0.03322757542407204,0.10315793635156884,30,28,71,67,3
0.00022825677620191587,0.0008057959511160719,0.03007185313112723,0.09668469851393556,24,26,79,65,3
0.0002089559025691489,0.0007856001320865114,0.02776411105055339,0.101568460548518,32,34,85,58,3
0.0002754729884260884,0.0008309125835659258,0.0280082371314339,0.11034944803089441,28,32,78,59,3
0.00025656489618695476,0.0008329753261031482,0.029419061055286123,0.11399524986738417,24,32,75,60,3
0.000299140076569715,0.0008533043721965526,0.03263951882313017,0.11764796217630664,26,34,73,60,3
0.00028444002652808003,0.0008445999618421505,0.03402465323760327,0.1128953093517917,28,38,71,65,3
4.714113035437526e-05,0.00014661193687200497,0.0036700220748069417,0.010080543899209128,14,12,84,55,4
3.7312594050805906e-05,0.00015039884469997733,0.0035977127312055227,0.00995168954499519,31,18,89,56,4
3.172550355355933e-05,0.0001506012807559064,0.003420685031028591,0.00975567471880312,26,19,98,54,4
3.792285074567258e-05,0.00012945314321584242,0.0036056298798261303,0.009332462661944345,12,22,93,64,4
2.9569632720421305e-05,0.00013188496807926484,0.0035022769479524526,0.008931873386099375,20,19,102,56,4
2.3122135744621415e-05,0.00014013369022720606,0.00325092065126398,0.009048341390769708,30,14,98,58,4
2.2294229726482717e-05,0.00013521764783463837,0.003084053903149268,0.008816146797314392,28,19,103,56,4
2.3154471756637426e-05,0.00012793231060116757,0.0030081229743521482,0.008361479435633227,29,16,99,56,4
2.4405241326980684e-05,0.0001394573092201784,0.0030164914723375268,0.008760504198354516,22,17,94,52,4
2.2133126093941827e-05,0.00013270734003027762,0.002976663428058245,0.00863096197713646,29,20,91,55,4
2.3326261553885683e-05,0.0001395326455190737,0.0031999304578454145,0.008842564351090898,32,25,90,56,4
2.3059927515108968e-05,0.0001400065559435853,0.003133725277552218,0.008679261839067533,33,18,94,64,4
2.5755879600735994e-05,0.00013448554209034743,0.003155471130207361,0.008530091397359175,30,25,99,54,4
2.3454677064878903e-05,0.0001379313339634418,0.003065855390613703,0.008619012554647372,31,22,97,56,4
2.1666375574669233e-05,0.00014196404251226743,0.0028558017235426315,0.008662550949905434,34,25,98,51,4
2.377492509082534e-05,0.00014450621383404382,0.0027548524021389575,0.008903975752281084,33,16,91,54,4
2.2850928492701388e-05,0.00014348613010983156,0.0027390448222419043,0.009028842616210911,24,23,94,60,4
2.4446227961233843e-05,0.0001414334647041662,0.0027792855877095176,0.008882144439992065,31,20,88,54,4
0.0001655426563872785,0.00034566551794979757,0.009581898340953725,0.023341908117215527,6,6,62,37,4
0.0003229541739945982,0.004666502492366564,0.017660421306770993,0.27083613763635483,7,4,52,76,4
0.00034226068548105624,0.004964704816463794,0.018090574060998524,0.2769723592724748,8,4,51,80,4
0.00023645581503242049,0.004907123222876309,0.01413262590867848,0.2656075785822993,8,4,73,60,4
0.00020750032608526098,0.004519665183389674,0.012077113207937895,0.2482832476667536,4,3,79,56,4
3.608266861545166e-05,0.0001933926588399702,0.00443898091463506,0.012026714297429951,31,18,101,53,4
3.0433356300382015e-05,0.000142999796955065,0.003825770392042216,0.010138682314518222,26,16,107,64,4
3.122934498723939e-05,0.00015168109202297545,0.004191044161848367,0.010585691020060751,29,18,98,55,4
3.465398634847859e-05,0.00014739001379819337,0.004257480592631374,0.010074633598737627,28,15,98,62,4
3.86685110864935e-05,0.00014406966651927101,0.004242450947807107,0.010264873608729621,24,16,88,61,4
3.225498120146619e-05,0.0001646149154590096,0.004280417262132761,0.010971507821853145,24,13,95,59,4
4.208194715897443e-05,0.00015630922193669353,0.004067149291313607,0.01072687812987891,25,14,88,56,4
5.048352132422167e-05,0.0001724056452285167,0.004151544779736548,0.011379949302432846,18,15,81,47,4
4.5723938403949127e-05,0.00017759058721493045,0.0041449049909395835,0.01121677459114097,22,16,86,47,4
3.9601110775029736e-05,0.00017998119896346548,0.004272246596072397,0.01134981139036496,26,13,82,53,4
3.694140124761405e-05,0.0001942295816597717,0.004087872307784199,0.011589208308684155,21,14,84,51,4
3.900741262944291e-05,0.00016212862287605587,0.004291772241454637,0.010968049270045977,22,15,85,62,4
3.733932147840051e-05,0.00015544170031657446,0.004438259517406375,0.010913865298346719,21,12,82,56,4
3.37851001264857e-05,0.00015731018386016984,0.0042466796392666185,0.011154629182243804,26,13,91,54,4
3.5570531787962976e-05,0.0001612075778333246,0.004481647190483823,0.011051647678387466,27,12,89,53,4
4.035551004065336e-05,0.00019284100426338505,0.004323030098095096,0.011936016502487202,20,15,94,56,4
4.611928579173887e-05,0.00018245522009868116,0.004188190961098482,0.01159148712850291,20,14,93,54,4
4.2336557673615304e-05,0.00015821140400712225,0.004911409265652277,0.010834963664915143,22,14,101,49,4
4.778766523831183e-05,0.00015776037986446547,0.004849003297883082,0.01091060490925449,23,10,100,52,4
5.470217438879338e-05,0.00018558439910732881,0.004928521798237838,0.011363725572389741,18,8,89,56,4
7.568316751405818e-05,0.00016188174055565313,0.005867045458047037,0.0105596423269805,20,14,85,56,4
6.551914561391578e-05,0.00017260697771101087,0.005229600896412024,0.011097523623077117,16,13,80,52,4
6.912748315240936e-05,0.0001663146385654597,0.0055921201202721125,0.010849100982438223,18,14,68,52,4
7.792420187878045e-05,0.00013940646417141814,0.005847476423978319,0.010009417782453001,20,15,74,58,4
8.646604123579498e-05,0.00016179978737457481,0.0058043038805683225,0.010495441266186832,12,14,70,58,4
7.808210021275352e-05,0.00014263137477430355,0.006034514031021194,0.010529356348625174,14,14,80,63,4
0.0005446920687110333,0.000755224089559199,0.06333753131953587,0.09166257350300282,28,26,67,58,0
0.00047856153664849725,0.00064849279224231,0.061539441727462584,0.08046028663611235,28,26,71,58,0
0.00044784492387520017,0.0006805761420448618,0.05959769907059067,0.07787755441535396,34,28,71,55,0
0.0005119539013331207,0.0005833819794967814,0.061800404088249286,0.07001003110495932,30,30,58,56,0
0.00046018512245370256,0.0005250250018538194,0.05942816008950419,0.06822789952701541,32,28,63,53,0
0.00040274575729983106,0.0005274633655117746,0.05369285644605987,0.06403711950055059,32,28,63,54,0
0.0004349927612307931,0.00045171561773973924,0.05406284472972734,0.05898811022758603,32,24,66,61,0
0.0004130738751498404,0.0004813715688712693,0.051160439254191524,0.05998705966906477,32,32,74,66,0
0.00040126631418468657,0.00047877754011193906,0.048931779211689154,0.05747026398984584,20,28,69,65,0
0.0004439188555139098,0.0005081663984422112,0.04988919467183735,0.06128339497795104,30,24,68,68,0
0.0004386754015434607,0.00047576269191802837,0.0466013012451642,0.06236601573284732,28,26,73,63,0
0.0004482680658623389,0.0004929409759727312,0.04392466770426412,0.0674938043460193,32,28,72,63,0
0.0004470209712318111,0.0005496274341056014,0.04717973276582501,0.06653888338808034,28,34,67,63,0
0.0004353066251728454,0.000586520950243513,0.05173972730614973,0.07356592024091883,28,30,67,55,0
0.0003861415448823208,0.0005630085155358092,0.050788091525905486,0.06924824816650653,28,30,72,58,0
0.00040070738286261106,0.0005201039525989533,0.05392550536593145,0.061830301985452245,26,24,71,64,0
0.00044931322966367183,0.0005954572653070336,0.057319111965550305,0.06483587481869092,24,24,70,59,0
0.00043268748523954387,0.0004825198384050797,0.05485906727979585,0.06042242369771252,22,24,59,66,0
0.0004307795160053581,0.0005272529839046421,0.05414926192219346,0.06385552141498353,32,28,60,63,0
0.0003891550175490703,0.0004944544896931437,0.0493246025904433,0.056941036663529204,30,26,68,60,0
0.00032167475165779914,0.000489424226446676,0.04435583621916828,0.06011121201303191,26,22,73,60,0
0.0003260265695891098,0.0004767858138259363,0.04405634385579902,0.05723363041358312,22,24,73,65,0
0.00032881346647658036,0.0004803314346234281,0.046056094907974354,0.05129994729028371,20,28,75,55,0
0.00033614395988902505,0.000546739416683511,0.04664686392375237,0.05852902939902025,28,18,72,58,0
0.0005456449714116554,0.00045239293202268535,0.07734020437346253,0.04916721418482358,26,28,74,84,1
0.0005427505720647396,0.0004597294159749692,0.08330850502053053,0.05503773681088666,28,22,76,67,1
0.0006145621513012123,0.0005963694111895631,0.09478392690151471,0.06942966881502403,30,18,70,62,1
0.0007833563213166984,0.0006603689537695144,0.11002339630213014,0.0748687334044114,32,22,72,61,1
0.0007956654939710029,0.0006644594607330929,0.11812023186530031,0.07558002651115744,28,20,68,66,1
0.0008127365931598598,0.0007959300902113362,0.12911104357305966,0.0922507761314852,32,22,69,62,1
0.00100197824085703,0.0007361804221082728,0.14688011592325279,0.09164899492872249,28,20,70,71,1
0.0011159590141984433,0.0008419785802612101,0.16199879123617378,0.0998448756266936,28,20,63,66,1
0.001149795162628196,0.0008900710233991707,0.15830670003501943,0.1073605604208362,32,20,69,63,1
0.0010867128722415608,0.0008238524949745746,0.145148232057774,0.09957864875916919,32,20,74,64,1
0.0010633079009879228,0.0008221053500765394,0.1320871562701322,0.09920261755303089,34,22,71,62,1
0.000980810138380317,0.000814836624815171,0.12077899346509281,0.09898884010677303,30,18,74,64,1
0.0010139152726614728,0.0008798370209164421,0.13805044111191594,0.10863138401984428,34,20,71,62,1
0.0011053214734778505,0.0009871216037432061,0.16100774456305267,0.1170077404614611,32,18,66,54,1
0.001156107743368772,0.0011888245732181852,0.17345128959543973,0.12487098498867619,32,22,69,51,1
0.0012238419337851554,0.0011796566185076733,0.17721277731702448,0.12114795509931713,30,22,67,52,1
0.0012048479458852052,0.0011321369952880787,0.17789068900754254,0.11809457415971447,24,32,67,51,1
0.0012263983178028392,0.0009791204490272997,0.1724663377095945,0.10473584813960554,24,24,68,55,1
0.0012088016035919553,0.0009537647859766629,0.17512731784761884,0.10010818957854088,28,24,65,56,1
0.0013219743334790227,0.0009536350952038371,0.18246421968246065,0.09874323872378225,28,20,66,62,1
0.001215641646489408,0.0009454906537897201,0.1816250481692945,0.0941198867970373,28,24,67,67,1
0.0011647801037714246,0.0009705680340895546,0.1771262635133142,0.09900658977949403,32,26,69,66,1
0.0011949140747523131,0.0009927913767717896,0.16926366651677366,0.1043253055375013,34,26,70,65,1
0.001238049420172297,0.0009297597584443496,0.16647263517464986,0.104556947315004,36,22,72,67,1
0.0003466892083426476,0.0006599507232427518,0.04654032531306156,0.046719628707109995,38,24,70,44,2
0.000407026003887219,0.0007365467865712443,0.053061978342741185,0.05633327270244263,38,18,68,40,2
0.00039168516811533444,0.0008022578956749926,0.05430455730471336,0.06362354143782241,42,22,70,41,2
0.0003804336599261332,0.0010135942435397346,0.05692569953941852,0.06930357103110153,30,20,69,37,2
0.0004324959266479359,0.0009706686222581854,0.0606114780973704,0.06957337160565638,40,18,65,33,2
0.0003963141098612565,0.0009358667873600007,0.058345561778567735,0.0636394201258437,40,14,69,37,2
0.00038198215005363705,0.001069048439146686,0.05739399542062856,0.06297509046393841,38,22,70,31,2
0.0003780461363075269,0.0008753234402448086,0.053437092262253245,0.06340437674302116,38,22,76,33,2
0.00032720049013621377,0.000984304889442978,0.047798418047550195,0.06341040169034223,30,28,83,36,2
0.0003181683889179077,0.001073109940232218,0.047517890455279856,0.07342290534221337,34,20,83,31,2
0.0003418030820512392,0.0011096540997884404,0.05033943073625346,0.0824224720978981,36,18,86,34,2
0.000425961809501724,0.0012953458913490448,0.060111310047399065,0.09651060270884722,32,16,83,36,2
0.0004658939242433173,0.0013900156966867258,0.06513899593470597,0.10450628597908063,38,18,85,36,2
0.0005243205931861784,0.0013173217569196342,0.0734897565070249,0.09736889523272671,36,24,79,36,2
0.000570973623267175,0.0013938238881262674,0.08874198564016254,0.09277824345571013,32,16,73,41,2
0.0005258480573568487,0.0012988613120399034,0.0827374899603447,0.08134496660013174,32,18,75,37,2
0.0005384396629251145,0.001242218333938447,0.08399152373604608,0.09051928041007745,30,20,68,37,2
0.0005712979695857126,0.0012933733012199559,0.08625707791080779,0.09088319706861084,34,24,73,32,2
0.0004751922083273504,0.0013143595679272627,0.07635815728458947,0.09276109806442431,32,18,76,29,2
0.0005047515397136443,0.0011923596994455438,0.08199580755642989,0.0880505853065637,40,22,76,31,2
0.0005281457762970038,0.0010110051937956774,0.08469223756579755,0.07480882348540292,38,24,82,31,2
0.0005596967179996349,0.00123506147475338,0.08369000529972573,0.0889281572313496,32,18,78,36,2
0.0005898513666571082,0.0010835199683343895,0.08550219752375138,0.07803440203011443,30,18,83,36,2
0.0005922589846679969,0.0011367817163641999,0.08708271277159627,0.08112925605162236,26,18,85,33,2
0.0006160246437399979,0.0011478181567941195,0.05013992692274377,0.14770380626328672,34,32,68,55,3
0.0004488174698557288,0.001042061786575575,0.04956881546362288,0.13953525220938004,36,30,69,58,3
0.0004233613282743421,0.000996407216896178,0.049506162567497104,0.1338748146840926,32,32,72,60,3
0.00039698986601466595,0.0009602808428557745,0.046199663849452004,0.12332770488645728,28,30,77,57,3
0.0003812802530321782,0.0008916758334224388,0.044899024834364726,0.12159309611713642,36,24,75,61,3
0.0003761517732083907,0.0008360424869081191,0.04367800784929835,0.10901915976246825,32,22,70,62,3
0.0003301383864251151,0.0007804385485141292,0.04521435113435507,0.10654321115640959,36,24,73,63,3
0.0003515173981042774,0.0007821015811537361,0.04501275722227664,0.10985419821597645,38,32,63,68,3
0.0003492176262358605,0.0007838144461311658,0.0451434643234157,0.10588679609570353,32,38,65,67,3
0.00031733182707426174,0.0008745198995692664,0.04404494015155617,0.11562051310873958,32,38,69,69,3
0.0002856780600665961,0.0008743226172062728,0.0402183950612273,0.10920949230788056,34,42,72,67,3
0.0002556333650687994,0.0007727510231311379,0.037795900860627694,0.09696960575308168,28,36,76,67,3
0.00024270189187901525,0.0007062059278846644,0.03459285045383932,0.08749078684883657,26,40,78,62,3
0.0002125184530125684,0.000622983480920566,0.03047644629160444,0.07879426880684799,32,38,78,64,3
0.00019974941856429652,0.0007028617470845372,0.029143088557640133,0.08321380146267024,32,28,72,63,3
0.00018986753211582366,0.0006343138237558444,0.02895454395504582,0.07910904324869407,24,28,75,71,3
0.00017650799615119884,0.0006049414452571243,0.027041077263960867,0.0741528179151376,32,24,71,71,3
0.00020921629401629275,0.0006403131823730388,0.02914845504691036,0.07556756142991279,42,24,72,72,3
0.00024460920373265587,0.0006005763906671426,0.031646496298494205,0.07562014900463224,38,26,73,76,3
0.0002850687616727672,0.0006972219125816483,0.03333218203065411,0.08504280319721695,36,28,70,65,3
0.00033408832156338054,0.0007223597353906529,0.037896231574910975,0.09596233120887533,38,28,71,60,3
0.00035418838938891403,0.0007638550925525772,0.041324205290646614,0.1014690948800893,36,24,77,64,3
0.0003641754152879095,0.0007200532612432531,0.04164619691704612,0.10404089101156347,38,24,78,72,3
0.00035995142949416854,0.0007596393295649208,0.044622242169814856,0.11174828718579952,32,26,74,74,3
4.0059624159042746e-05,0.00015067644168348867,0.005277199123623475,0.009652415466627135,28,26,87,62,4
3.596761246476644e-05,0.0001396975192311444,0.004981573847562284,0.009260449120044072,30,16,87,56,4
3.6061445477419777e-05,0.000127886772062224,0.004727491822866552,0.008688520776880898,22,20,91,62,4
3.4973612158603294e-05,0.00011861291136076087,0.004355919683994424,0.008661639405737203,28,20,86,52,4
3.344168988250639e-05,0.0001284065845054457,0.004250315022015732,0.008311555024270095,30,25,87,63,4
3.876553340645963e-05,0.00011514058525300409,0.004874761002807533,0.007957378858104769,34,20,82,62,4
4.1967171398918455e-05,0.0001314150281195202,0.005005877675057929,0.008529149119490003,32,19,78,54,4
4.2672346504297654e-05,0.00013675462576323637,0.005133133559979859,0.009150355730571288,51,22,76,53,4
4.537265331452174e-05,0.00014195299416272912,0.005450338878580223,0.009125750614242293,40,28,74,58,4
3.9102729674525655e-05,0.00013785288779998166,0.005127277244507091,0.009223618902149452,38,20,82,51,4
0.00011539247083691596,0.0002931691566436049,0.009689579534240217,0.016526925631555164,34,26,82,45,4
0.0001262553207134973,0.00034416858433548386,0.010120501416039603,0.019406498499864668,42,18,78,39,4
0.00023639088668179784,0.0010912589071238458,0.014638318392796222,0.06190507916490279,38,26,53,86,4
0.00022554963945692073,0.001045955457517947,0.013854128206065498,0.05782867077493274,42,28,59,99,4
0.00013587651824890535,0.0009012183307719772,0.008820143332801714,0.05001158094021645,38,30,76,92,4
1.95967001201867e-05,0.0001150516914096492,0.0028747801080720075,0.007903739668925776,38,24,102,62,4
1.9491216472739206e-05,0.0001169815752690624,0.0029633829152891397,0.007982748631813086,40,30,102,62,4
2.259429308400884e-05,0.00012757559707343512,0.003110909296163437,0.009148347669939785,34,24,105,64,4
3.651457609685607e-05,0.00022581446733076509,0.003874975100349561,0.013366681837480956,28,22,92,58,4
6.142949942821052e-05,0.0002650516949260814,0.0054012419612604985,0.0165036032185937,28,22,88,52,4
0.00010108714489461459,0.00030515571074864087,0.00719783892157267,0.018963317823263777,38,18,74,45,4
0.00010248105211454827,0.0002674570866646773,0.007124557932733406,0.017513015762388433,36,23,67,56,4
9.40562730134093e-05,0.00017204991153332478,0.006629675598052624,0.012519499542270659,31,20,74,60,4
7.920094304170285e-05,0.00015647701277902274,0.0051947849881513785,0.011721451708946165,28,23,79,54,4
