f1ch1,f1ch2,f2ch1,f2ch2,f3ch1,f3ch2,f4ch1,f4ch2,Category
0.0005795616536710085,0.0006977007524540725,0.06580393788116995,0.06956304364658848,28,22,66,63,0
0.0005630763821925973,0.0007471524041102619,0.06816138865423564,0.07235550851163104,26,22,65,67,0
0.0005584810449302079,0.0007654942920724006,0.07082226387882255,0.07046654276369911,28,24,73,66,0
0.0005885003507566064,0.0008150120834309749,0.07238511845763114,0.08414448089310661,26,24,67,61,0
0.0005464489044678843,0.0008045129483808399,0.07265739715464138,0.08358943540248918,24,26,73,61,0
0.0005037907084397373,0.0007810375120925378,0.06668655662480259,0.0815633916591833,28,30,78,62,0
0.0005515952151478792,0.0007624138709979772,0.0704825456246815,0.08592141521685165,24,26,74,56,0
0.0005344708811706874,0.000704081005803036,0.06885509943674566,0.082291453858994,28,24,79,58,0
0.0005581421956791055,0.0007173973860008049,0.06976130734582063,0.08217985316159793,30,28,72,58,0
0.0006273307498887071,0.000694466339940477,0.07350621561026491,0.07750675462894185,20,30,66,62,0
0.0005356310500063439,0.000719456678363723,0.06301320905623777,0.07081234519148388,30,28,77,60,0
0.0005642034077405991,0.000780732238842685,0.06434319137553368,0.07393698138499415,24,22,76,58,0
0.0005094469221516314,0.0007058833784757535,0.05825968949858041,0.06595885169087688,24,18,80,63,0
0.0005288814080787518,0.000718505515605572,0.05621502978488943,0.07274155765958962,28,28,74,61,0
0.0005362126446561255,0.0006774819310545628,0.05799979567059109,0.07337520814109827,20,26,69,59,0
0.0004723123833136141,0.0006187319007973107,0.05395898776948839,0.0657198672568099,20,26,64,64,0
0.00047871075692778166,0.0006263255670081755,0.05298760713088235,0.06749081472847573,20,28,65,59,0
0.0004470360994143028,0.0006754604520241655,0.05283320163498414,0.06098464719226246,24,26,71,60,0
0.0004510255206040011,0.0005806094224882083,0.05099122119041097,0.06100045185294976,30,28,70,61,0
0.0004113994212642228,0.0005506690194021255,0.05038396539929997,0.060560903226409696,30,28,68,66,0
0.00040002771825848276,0.0005699701076258514,0.05207473980886327,0.06411477482886399,34,26,74,63,0
0.00039398182464764933,0.0005981492703669635,0.05105368782176072,0.06786553821071667,30,24,75,57,0
0.00039793293497406327,0.0006697433728044543,0.05001888932968885,0.06679557415305351,24,22,81,56,0
0.0004943202211579296,0.0006331219104991613,0.053356643902066306,0.06818937206997264,28,24,74,55,0
0.0004914577519319247,0.0006187017457135018,0.05297393707248099,0.06472450166541946,30,24,77,55,0
0.0005020775799400599,0.0006293771876000498,0.0547595479708562,0.06376663306612368,32,24,70,53,0
0.0005108381113100112,0.0005490417453846146,0.057994391731579296,0.06461506978913781,28,26,70,59,0
0.0004714358864745681,0.0005244687069095638,0.06150513761623461,0.06401120948200176,40,24,73,56,0
0.000453755639513457,0.0005473750089247282,0.0617311968438824,0.06809060967300608,34,32,73,55,0
0.0004229757334543851,0.0004890205062502987,0.060809223378258136,0.061139347354629905,36,28,69,59,0
0.00041845490430647623,0.0005671070407293678,0.056933481119949135,0.05928979151850978,28,30,63,57,0
0.00037103906092295595,0.0005592092791348286,0.049477871167985375,0.05542106607116408,26,22,66,64,0
0.00036292313560215263,0.0005495595495235759,0.05003898192027572,0.05014110457652837,28,22,59,67,0
0.0003827817872066714,0.0005789912227529097,0.05152343582399374,0.055828507840662234,34,26,62,64,0
0.00037047334206321344,0.0006128091194963292,0.04949225787856208,0.05742526586648526,36,26,66,63,0
0.0004226612872007365,0.0006443497281427812,0.052232565059025064,0.05754484319353805,40,26,66,62,0
0.00044624921486788717,0.0005373779398735618,0.05115277178081663,0.05434576896533313,32,26,68,60,0
0.0004186305529536414,0.0005171750570366191,0.048580391594817716,0.05219804245742323,32,26,66,50,0
0.00043455759493968066,0.0004646415379539019,0.050385381166488594,0.046850704546836326,30,26,59,60,0
0.000700539262396723,0.0006118980366619596,0.062334858099610126,0.05888409028003415,16,20,72,56,0
0.0007020582316277792,0.0006529665330441918,0.06370871380481131,0.06859442444151351,20,22,71,57,0
0.0007293462898027918,0.0006612656211661867,0.06546855213732052,0.07345227664674553,12,22,64,59,0
0.0004494742904703531,0.0006081429101736764,0.06047875862910003,0.07906070203272283,34,24,69,58,0
0.00041992291794976637,0.0006866663591578061,0.05867891754177309,0.08075536100151975,40,30,67,57,0
0.00037035219427857593,0.0007266933997614911,0.05623469266295344,0.07942301731864512,32,18,71,54,0
0.00038633538183203433,0.0007583166878529743,0.05935131056649535,0.0775992691911377,34,18,71,56,0
0.0004104445579458944,0.0007524416951992532,0.05741902419977441,0.07807474017343642,36,24,66,52,0
0.000412402038836251,0.0006192527548235594,0.05233563573717265,0.06405664566199062,34,20,70,57,0
0.0007147533721411231,0.0006809062884075276,0.09958340943543045,0.08204885421104896,30,32,79,69,1
0.0006789355729861478,0.0006877161487730236,0.09894846736288007,0.08629052675111083,34,26,72,75,1
0.0006755138267475645,0.0006892599937634059,0.0954917316726403,0.08677791705062382,30,26,75,76,1
0.0006918995730915094,0.0007020258984658667,0.09846613755629507,0.08281289063046325,30,24,74,75,1
0.00074912307062798,0.0006946160327461357,0.1027975907271081,0.08038851029605316,30,20,73,70,1
0.000847026940712771,0.0005964725430893082,0.11193452406003238,0.07773319605645714,26,24,70,71,1
0.0007883692784571028,0.0005471975797496874,0.11379710947535543,0.07173097359329898,32,28,70,71,1
0.0007786323552464695,0.0005194497282915647,0.11090294008541661,0.07021618690604088,30,28,67,67,1
0.0007946511877648838,0.0005327606234186922,0.109397132943171,0.06944093591412055,26,32,66,62,1
0.0006950136752711866,0.0005793149269525808,0.09942770146032931,0.06722136489456536,28,24,65,67,1
0.0006689570505551002,0.0005837369547034573,0.09023827592761338,0.06674019551969038,26,28,64,67,1
0.000651570816410815,0.0006596803356690425,0.09462297928322436,0.07232566244677936,36,26,71,61,1
0.0006298995710387915,0.0007134958261483569,0.09622981784226187,0.07927930158765523,38,24,69,67,1
0.000705232990523187,0.0007560202911550778,0.10808763821870393,0.08426382009110069,36,28,70,62,1
0.000792494543927058,0.0008310350000773862,0.12027502779477268,0.08893507563913418,38,26,66,59,1
0.0007913094925333003,0.0008060509629693843,0.10592299315991639,0.08463271513814095,34,24,69,55,1
0.0006974662939267201,0.0006611064354915552,0.09831325134095159,0.07476644380566119,34,24,73,66,1
0.0006252986978995642,0.0006289519228288923,0.0865351122779923,0.0702004610407552,26,26,79,63,1
0.0004984103949143947,0.0006114757821894207,0.07349314946274864,0.06557340547347751,28,26,89,69,1
0.0005014918343198435,0.0004884734065106258,0.07767694879130074,0.06243877904707515,30,24,90,67,1
0.0004888652044303563,0.0005587037303425479,0.07304124001654694,0.06921104287515936,30,20,79,58,1
0.0004955962576176625,0.0005326585978727696,0.07649987559219092,0.06698893769700168,34,20,79,62,1
0.0005506578348865365,0.000606078759441929,0.08390863634502481,0.07443030175086572,34,24,78,67,1
0.0005150844993972127,0.0005891922197508147,0.07716922370437883,0.07443970297122764,36,20,82,64,1
0.0005163634546725468,0.0005378918539562062,0.07646410137105765,0.07001239950133281,32,24,83,69,1
0.0004956651865344761,0.0005115031131342637,0.07218696104114078,0.06887925759365182,38,28,76,71,1
0.00044202903055545767,0.000502005985223215,0.06852583805976523,0.0630151989667537,36,31,76,76,1
0.0004819339498007069,0.0005181500372481055,0.07751204552443719,0.06199672538658127,34,28,74,75,1
0.0005395373068162487,0.0005139202127081063,0.08450055099331215,0.0644625639814794,30,32,72,72,1
0.0005073312137398939,0.0005745104176896802,0.08065819433076453,0.06642872770114377,32,26,76,71,1
0.0004969202594736219,0.0005212290199060343,0.07841823977975479,0.06587388099028771,32,24,78,62,1
0.0004958833791373162,0.0005379492430735261,0.07389379371731125,0.06462895070038366,36,28,75,64,1
0.00048395607055611104,0.0005501530749990389,0.07219277250460623,0.06100578194242952,34,24,75,66,1
0.0005835318464020396,0.0005827922047533187,0.08165365691883078,0.06185219965661153,38,24,69,68,1
0.0006675420374084807,0.0004820916080422436,0.08860551288155169,0.05441902503116344,28,26,62,80,1
0.0006374416491566718,0.0004875991000859661,0.08435213373567763,0.0534831808512969,28,24,71,82,1
0.0006375829351288384,0.00038758937576035087,0.08522371651764105,0.0524690188699152,34,32,66,83,1
0.0006268824036031977,0.00040597457480741084,0.07757422621555278,0.05403125785991269,28,34,62,82,1
0.0005771005162503582,0.0004296667296476755,0.07213332179282543,0.057828708389050194,26,32,67,74,1
0.0007259804515548167,0.0008431130479789264,0.07683875021873982,0.07723059824945938,22,22,63,68,1
0.0007014775935529552,0.0009544613187632004,0.07023811520083714,0.07470093291143672,18,22,71,66,1
0.0006794565061170285,0.0009048556804149848,0.0736620003942855,0.07046129207062046,20,18,76,59,1
0.0005471846035336635,0.0006081404440726338,0.06969842570545631,0.054743508478278004,26,20,74,65,1
0.0005641844433998657,0.0005015633444770632,0.06678872384754851,0.05266904727572628,28,22,79,68,1
0.0005192437524358186,0.0004592231399380687,0.06659940210644905,0.051990256835483695,28,26,88,62,1
0.0005474950393722334,0.0004338194516979048,0.06671070564877694,0.049879107971252404,30,26,80,66,1
0.0005405528046534353,0.0004421825600629784,0.06651667177545176,0.048367549001633474,28,22,72,61,1
0.0005491790492077581,0.00038760662526298297,0.07341983614864579,0.04518133226001155,34,24,68,64,1
0.0004974146432412199,0.00014529381969750733,0.06109531986337131,0.01581406847288072,32,33,65,71,2
0.0005113288004850992,0.0001776891248440116,0.06324473726602887,0.017003208694082464,30,26,59,65,2
0.0004791540256935039,0.00017890044427198526,0.063223626979653,0.018517609692215446,30,28,66,69,2
0.0004349903657508268,0.00018278508568309054,0.06169241714331227,0.0191722454567113,28,26,71,71,2
0.00040893373104755387,0.00016917661837271533,0.060828850584144244,0.018826358808850786,36,32,69,75,2
0.00036905840679612534,0.0001581854391007308,0.060960524019609434,0.018034406193793942,36,30,69,79,2
0.00033933449239981585,0.00016457404601334996,0.05492113950947079,0.016827655159611328,40,33,69,76,2
0.00033094917936114305,0.00017282519822520325,0.05316888560197925,0.015889503553545316,42,24,71,74,2
0.00039863638626054027,0.0001739820719016598,0.06107725377755363,0.016794606956326997,36,23,75,69,2
0.00039471013195088614,0.0001879010645029873,0.06099020864319105,0.018318694280508398,30,20,81,67,2
0.0005239747361608933,0.00019245974402613199,0.07233831752313098,0.018298200380462766,28,19,83,70,2
0.0005381941126206698,0.00023728960219945264,0.07705385879107214,0.019506821749344313,30,20,81,61,2
0.0006093821321378641,0.0002444282266706593,0.08080270502418593,0.021403288159511265,26,22,78,54,2
0.0006417265695535522,0.00025580817235045715,0.0982876931393839,0.022463371087235045,34,20,77,58,2
0.0006483880780412147,0.00026366348119241943,0.1090321301308081,0.025031178811521497,30,24,77,65,2
0.0006995215876962379,0.00030700353864814624,0.11482959157859092,0.0281101831777034,30,22,77,68,2
0.0007708190699887183,0.00031307987922639635,0.11538478607737791,0.02874945037220589,34,22,72,62,2
0.0007247820861860075,0.0003130381699194325,0.10877145022782253,0.03101491348942432,36,22,73,59,2
0.0007402435213327163,0.00033817023123769696,0.10522773936027272,0.03377714229631079,30,21,70,66,2
0.0008250101058920006,0.0003491679304367015,0.113797664671044,0.03327074335144069,28,20,69,67,2
0.0009590659076855016,0.0003582438981270251,0.12373092373626637,0.03436331814226023,30,18,69,61,2
0.0008136557956910421,0.0003446491932192996,0.11360452872604503,0.03439905313625449,22,20,74,58,2
0.000796505241997062,0.0003117605322588645,0.10957824300588707,0.032400775687842845,28,19,72,63,2
0.0006695023561893755,0.00034210608458787344,0.09604075068154412,0.03211745305396286,24,18,73,65,2
0.0006334156337764191,0.0004007160971985822,0.08370477333271459,0.03367858926821614,30,18,80,65,2
0.0006675163572254897,0.00047289335117900574,0.09931940322150201,0.03271255745302011,32,16,71,66,2
0.0005849325396038098,0.0004141997452065309,0.09367740619817874,0.031385665009277725,36,14,72,65,2
0.000673559018420104,0.00039699499963074153,0.10124349877811364,0.032205203020779796,30,20,63,62,2
0.0006359910382168392,0.0003951372246356779,0.09654336692299398,0.031351914597082586,30,22,64,60,2
0.0006546024411216402,0.00035773242985004156,0.08656694619309248,0.03062896196470095,32,22,63,59,2
0.0006220626212623028,0.00035823722167656715,0.0816515425186546,0.02877272617332767,34,24,68,61,2
0.0005496694154827994,0.0003542286932352336,0.08063374894941262,0.0281862581003032,38,14,71,67,2
0.0005509767367528518,0.00023766212234667538,0.08057217979042947,0.023996410208255426,34,18,73,66,2
0.0005247702854662524,0.0003223139069438869,0.08084805615643881,0.02538456660528691,34,14,76,66,2
0.0006486805039019542,0.0003223496054504814,0.0896287973955997,0.027123205076827434,30,16,74,62,2
0.000653676741761425,0.00032461574965822536,0.0836374546086205,0.026408250787435215,26,14,70,55,2
0.0006337986252048693,0.00033647696402232827,0.0793147978601716,0.025946153144292862,30,14,72,53,2
0.0006107057411832501,0.0003016919807112946,0.07621765203098976,0.025204534817850167,34,22,72,59,2
0.0005596891312829495,0.00032211351289005146,0.07901540770399443,0.02638783617210577,36,19,68,60,2
0.0007134074179890131,0.00045057422340414504,0.081045356345238,0.032793224908311484,28,16,68,51,2
0.0006811731877054818,0.00044543237326552835,0.0726772698289974,0.031191558065178298,24,14,69,43,2
0.0006209926637928204,0.00039228792329494756,0.062350203392934865,0.027373702534461627,16,16,61,49,2
0.00037767299560333427,0.0002835353128236653,0.038236073323013126,0.018031221235817442,16,14,67,53,2
0.00038068437208824303,0.0002883831104452193,0.03652961830143882,0.018089120467099973,16,20,68,47,2
0.0005033772831326439,0.00036396418427039374,0.042726866224292046,0.02286567040564311,10,16,68,53,2
0.0005735673322346452,0.0005435986746700208,0.050207859379233645,0.030732381573503408,22,12,70,50,2
0.0006380561169747964,0.0007535620468325159,0.05939212262374594,0.04547551468007613,14,10,66,34,2
0.0007316225311238164,0.0008413616395518038,0.07368333011086106,0.05060056790111658,18,14,65,39,2
0.0003395625914565166,0.0012616159706093587,0.040695720986855026,0.15224111548215125,26,28,73,56,3
0.00024318113936529714,0.0011653262166518253,0.03793037758266307,0.14207991158813632,38,30,77,64,3
0.00024209303959897555,0.0011090362618627646,0.0375434165070477,0.14784553750927434,36,26,72,66,3
0.0002618684691668902,0.0010807558318684477,0.040524966207649525,0.1536633394403194,32,26,70,69,3
0.0002452105264423184,0.0009848917647296699,0.037261225974871345,0.1477277783909087,38,32,73,74,3
0.00023854838533102826,0.0008870754203300055,0.03664113115854819,0.13676046492945326,34,34,78,75,3
0.0002427406253273293,0.0009001410415224145,0.0375379136604899,0.13878400550407954,22,34,77,71,3
0.00022667399743899147,0.0008655770464882352,0.0352506278421088,0.13712421078430634,34,40,83,69,3
0.0002347625106987607,0.0008324968040494177,0.036767066738207746,0.12481814619306628,28,40,73,73,3
0.00025299838105502515,0.000841322019480495,0.0373377960726815,0.1223853185720695,32,36,71,68,3
0.0002456164596650234,0.0007432670274229173,0.03462191149226214,0.1082199779742555,32,30,71,66,3
0.00022569830653688082,0.0006978863066668524,0.032513073769202566,0.09599835074478116,30,28,77,73,3
0.0002044877748566182,0.0006966627508405483,0.031383652363045585,0.1023839101888808,32,34,82,70,3
0.00021561285225368238,0.0007216896637208471,0.029794619478536292,0.11100382540123817,24,38,81,74,3
0.00021464484284942694,0.0007391864931074489,0.029969573589488433,0.1067580389924532,34,34,77,77,3
0.00023120223235810486,0.0007449188681430849,0.03262163992188713,0.10975130353972541,34,34,70,72,3
0.0002280449190743889,0.0007830371902835778,0.030866983128659663,0.10627310603193933,38,30,71,69,3
0.00023455687131847657,0.0006988889008613815,0.03304404890167678,0.0956972376821245,34,32,67,73,3
0.00019809652282142714,0.0006931052480358873,0.031563724729918516,0.10308349712036757,42,36,75,71,3
0.00021484295182488283,0.0007402781039669623,0.03140146148037728,0.10360061335584801,40,30,72,76,3
0.00022435838851273985,0.0007486139682281473,0.0299209567320229,0.1084768356013657,34,26,70,76,3
0.00022675951636775066,0.0007718298271590521,0.029456300800108193,0.10495582379278151,32,26,68,66,3
0.0002423154554439581,0.0007995093104012927,0.03076968185886031,0.10356497265157251,32,28,61,72,3
0.0002315210760961065,0.0008600401361783402,0.02974227434395341,0.10877657346561678,30,28,63,67,3
0.0002314704235605912,0.0007947154317032064,0.03076395674847113,0.09908984832718101,30,32,70,69,3
0.0002039253909609983,0.0007860003552464728,0.028117344521159715,0.1013628714798858,28,36,78,75,3
0.00017119604895740124,0.0007474609939192916,0.027290980773373382,0.10371091696303542,34,38,83,68,3
0.00017292501379695968,0.0007125184543735812,0.027299564210444806,0.10337630589012436,34,38,80,68,3
0.00016028705998353228,0.0007054420157628813,0.026170989956468188,0.10653085015567143,32,44,83,65,3
0.00017972496677984905,0.0007527689526871006,0.028612314760396166,0.10885289314544666,34,36,79,60,3
0.00017912345480192407,0.000693030371943459,0.028746964044804386,0.10460710324145493,40,34,80,68,3
0.0001720551611798679,0.000742171875740133,0.028589028875844226,0.10856198138324305,42,34,85,70,3
0.00016090132308041067,0.0007465627126145865,0.027501060067159702,0.10919700130513853,38,34,81,70,3
0.0001506957239579299,0.0007083013570588795,0.02610378159416985,0.10588887306398995,38,32,80,71,3
0.00016230288111474743,0.0006970971315988655,0.024438440159675768,0.10516373266248036,38,32,79,71,3
0.00013850172401389007,0.000715535317261038,0.022131536580127634,0.10475429798046562,35,28,81,72,3
0.0001466436945064813,0.0007217139316413718,0.022179725907924806,0.1011337999248599,34,26,77,68,3
0.00015245215911061127,0.0006894467709937884,0.02315986722714767,0.10131285317390076,32,28,78,71,3
0.00015199946166414115,0.0006732653565839114,0.023655900745978287,0.10135743934502765,32,28,78,72,3
0.00017226995128214752,0.0009829782454029113,0.025732960980588034,0.10826503439057643,34,22,80,70,3
0.00022052950644064817,0.0010237699072307143,0.03002292139749966,0.10913695539077102,34,20,75,78,3
0.00021959669093280597,0.0011340628903038696,0.03260754700281644,0.121371379707259,34,22,76,74,3
0.00020602876911602299,0.0008452073112891761,0.03187784038614776,0.11540148888154485,32,34,73,76,3
0.00022111684674893314,0.0008668914516853801,0.032136531645089096,0.113449888316123,34,30,71,70,3
0.00022131453385193606,0.0008675441463567838,0.03006485322957809,0.11274659846968366,34,32,73,60,3
0.00019826403757579477,0.0007564679273134336,0.02777870581724708,0.099829037083425,36,26,80,60,3
0.000198057842411423,0.0007764113554025488,0.02609909290940091,0.09524202754976678,32,26,73,54,3
0.00018219717712538968,0.0007297625624673004,0.027741843853215886,0.09464776803265527,36,28,77,55,3
2.8178983665261614e-05,0.00014102697322404716,0.003749309251110157,0.009458787591625665,34,14,95,56,4
2.956133407877842e-05,0.00014317335706997094,0.0037305967974584453,0.009548113530546659,28,16,88,54,4
2.818184516741895e-05,0.00015379421357750918,0.0038094250357932997,0.009510970001023149,28,12,88,57,4
2.9405914972829853e-05,0.0001439577635678976,0.003957539579521222,0.009390083736645396,30,14,86,54,4
3.08329747456267e-05,0.00012840381277976992,0.004074577615749821,0.008744246231529564,32,16,83,56,4
3.0002259697908352e-05,0.00013519130533701164,0.004163844964494331,0.008975397398879459,34,16,79,48,4
2.9177902643810403e-05,0.00012970437659052202,0.0038884899072188918,0.009076882128746501,34,14,78,54,4
2.85298467636744e-05,0.00011607474987454172,0.003698881023055736,0.008890654574335494,28,16,81,54,4
2.972035787855272e-05,0.00011275058143273036,0.003663170304402144,0.00889045506881611,28,16,75,62,4
3.408640951026784e-05,0.00013597970490847458,0.0038079453492580154,0.009345995319372809,26,14,83,65,4
3.1071669557087814e-05,0.00013145090733807606,0.003798251546419247,0.009361246692867937,24,14,82,66,4
2.8958717441607977e-05,0.00016309457529754202,0.0035862395602896243,0.010093300544632276,28,18,87,57,4
2.9316117122325248e-05,0.0001606346501181905,0.0036794517356623056,0.01041071899854915,32,12,82,56,4
3.063261439899097e-05,0.0001554633085368652,0.0035572104688318664,0.01047166558812091,26,18,84,51,4
2.9362234889420083e-05,0.00016009683380062493,0.0037288751503891495,0.010439303939688171,38,14,94,48,4
2.686987979325125e-05,0.00013807335020997726,0.0035936450084113917,0.009222500868885148,38,18,90,54,4
2.5002506298096037e-05,0.00013339774162901246,0.0034066244800700063,0.009242366981449967,40,16,93,58,4
2.7219927109209158e-05,0.0001462268304662735,0.0035244726073124107,0.009353247018590966,28,14,93,60,4
2.776165629339771e-05,0.00012278614441482014,0.003689524017861897,0.009120331604242027,30,18,87,76,4
2.8933215415445683e-05,0.00012730837806976844,0.003914504748971671,0.009502672686270015,36,22,88,68,4
2.9167650885579033e-05,0.0001146152306359963,0.004145970178739734,0.008912356017072473,28,26,92,70,4
2.84498739516282e-05,0.00013101692584664124,0.004069879925097496,0.009845524901463915,32,16,92,66,4
2.644208278360069e-05,0.00013658347082184558,0.0038795373635341695,0.009602312966565238,32,12,95,54,4
3.0281450822800115e-05,0.00013044183753792917,0.0038620616580293033,0.009624906215096067,28,10,85,56,4
3.4688411806031675e-05,0.00013721633789781849,0.0036578728423478646,0.009528757032010402,26,12,84,58,4
3.2219650025362134e-05,0.00014139930940471553,0.0037642665931912596,0.00900080099887267,30,12,93,54,4
3.313888248027266e-05,0.00013498108883047125,0.0037686829896105807,0.008639520354785017,32,12,88,60,4
0.00034962430399296224,0.0006478071555347035,0.02158569730390518,0.035779817116650486,4,4,88,83,4
0.0006698839937106881,0.0008131858483852888,0.03770890829236099,0.04525126734182249,7,8,30,48,4
0.0006966380514229951,0.0008331905686270977,0.03810352391579356,0.04538156853303081,6,6,30,40,4
0.0004485390663051377,0.00038183592838017516,0.024734845035823225,0.02424586641462109,6,10,53,47,4
0.0003995899566024411,0.00033913470172229127,0.02266284072170721,0.01980741682535113,4,5,56,53,4
3.825815789363685e-05,0.0001521569687915511,0.004982585621121782,0.009805209747702695,46,14,88,58,4
3.755134082131702e-05,0.00012055799140960233,0.004846931423380384,0.009027912101560917,26,18,91,58,4
3.7929006198502576e-05,0.00011872976436378049,0.0047696133932593554,0.009076480719467966,32,22,93,58,4
3.813766628220518e-05,0.00011470044810831273,0.00483758848645502,0.008733766847832366,24,18,93,62,4
3.283930067230025e-05,0.00011553469838283691,0.004826092830213001,0.009172862052743877,36,18,89,60,4
3.7431521510455224e-05,0.00014384832518346744,0.004842925104289991,0.009168927350276622,32,12,89,62,4
3.974166163657511e-05,0.00014221347634658745,0.004889289179769175,0.008932549974536705,26,16,89,59,4
3.728389757801473e-05,0.0001646013933816654,0.004950308965186468,0.010014561755337437,28,8,94,50,4
4.0636447056165174e-05,0.00014655574491513523,0.0049943772310124795,0.009799840672103443,22,14,97,53,4
3.6388821419218734e-05,0.0001509057875261846,0.00484541604100633,0.010258165788392129,24,14,94,48,4
3.622920917437206e-05,0.00013978313244716303,0.004680052792746522,0.009827627404371405,26,18,89,56,4
3.835510675021558e-05,0.00012400591653515466,0.004569508047547415,0.009315982635706623,25,20,83,62,4
3.468520434529573e-05,0.0001232411109872454,0.004335537998369503,0.009570942973560464,26,18,90,67,4
3.72832308909054e-05,0.00013407898683998057,0.004390683172841526,0.009297399943702237,24,16,83,61,4
3.818599689403862e-05,0.0001361557801611024,0.004590055126007847,0.009749940463120905,28,23,91,56,4
3.524414678415672e-05,0.0001352709939197344,0.004600657324975085,0.009608308368525144,34,18,96,60,4
0.0002542668101202352,0.0004382409320773873,0.03480993718379985,0.03574705275193827,40,26,75,64,0
0.00024193387367202421,0.0003983683802821755,0.03128794618082214,0.03416646196539231,30,26,71,55,0
0.0002627483976658064,0.000335445305945956,0.03363568741381977,0.031274697435708515,28,28,67,52,0
0.0002690791811425686,0.00034675647896296275,0.032038582786947586,0.03012596522798032,32,24,63,55,0
0.00026166867122934067,0.0002956973207636205,0.028630459983964237,0.028351477692618428,28,30,67,52,0
0.0002834201566816539,0.00027197015605852235,0.0289418440260989,0.027451978358604388,22,26,63,59,0
0.00025981122552490315,0.0002787870490416722,0.03013095923838954,0.02758549496350321,28,29,65,63,0
0.00023138454436066492,0.00026038299038012397,0.028410678631196073,0.028332856433799763,28,30,70,59,0
0.0002064501032639257,0.0002757413686723343,0.027269039073401398,0.02781054591568861,24,26,72,67,0
0.0010951026010473015,0.0013055911797503243,0.08100220180578512,0.08264953746248845,6,4,70,76,0
0.0012455471265474236,0.0015060066584414605,0.09365835788523348,0.10582036226444919,14,10,66,59,0
0.001376418390139169,0.0016336711472866852,0.10734172989824356,0.12649051479033416,14,14,63,53,0
0.0007550835255671877,0.0008252825401617323,0.08042014413138365,0.10153563620615787,28,26,62,65,0
0.0006667494878759318,0.0008226576576898326,0.07984698550789036,0.10139004867668441,28,28,63,69,0
0.0005480098048497727,0.0007521539100308064,0.06815151369422365,0.09037067144131228,24,26,62,74,0
0.0004757169960417722,0.000647901146792531,0.05979941184896221,0.07430928172151606,28,18,71,74,0
0.00045913243051334845,0.0006365710072969982,0.054139720960381284,0.07275976975809019,26,20,69,72,0
0.0003962972304336694,0.0005802478484744309,0.048449655209643935,0.06322610585647413,26,20,70,69,0
0.0003995049466803943,0.0005517887418920074,0.04818071813401212,0.0578683579987313,30,24,69,66,0
0.000444305103210101,0.0005895933926307192,0.0485088688372715,0.05950534150811101,22,22,64,55,0
0.0003767471957353482,0.0005052957577454093,0.04225128740726361,0.052690938630732695,32,24,70,54,0
0.00041149518430948044,0.0005589730867396188,0.04245972787500403,0.05508415143522769,28,26,77,57,0
0.0003456890643757006,0.0004951728000804959,0.03844248664178716,0.053232489605218127,26,28,76,60,0
0.00031978962319033165,0.0004994654892146637,0.036341282891195224,0.05397697023262792,30,28,75,63,0
0.0003473787962045908,0.0005274924643701503,0.040611462796917026,0.056733182341679074,26,28,71,60,0
0.00032454388877319203,0.0005304435793667546,0.043813635183147945,0.0609038748732339,36,24,70,60,0
0.00038700255222727715,0.0005519638223115115,0.04965379217898648,0.06191820478299175,36,24,67,61,0
0.00041777132100293354,0.0005784911199953629,0.05111162002454387,0.06762490500157525,36,28,67,61,0
0.0004735058099132327,0.0005621060199333469,0.05556166832344688,0.07062931134354265,32,28,66,60,0
0.0004720245376650008,0.0005625364148326426,0.05389279058867522,0.0700926436849923,30,26,66,60,0
0.0004954650757836639,0.0006440238270464918,0.061273512761830115,0.0835402277919813,24,30,71,54,0
0.0005279559367345056,0.0006780537057973704,0.06776493570951547,0.084624232543238,22,28,72,52,0
0.00048438946036029725,0.000722084417384579,0.06478618170246796,0.08846237518556523,22,30,76,54,0
0.00048758199439477074,0.0007485206797925293,0.07048395558359835,0.09402417433029758,20,26,83,52,0
0.0004711049907556216,0.0007862123285133867,0.06582079547403961,0.09675397463294551,18,26,81,55,0
0.00047522258612955225,0.0007138317427982785,0.06524625063652581,0.0925581235768818,26,24,78,55,0
0.0005503253637164416,0.0008058877412461341,0.07042165083941015,0.09635943373816773,34,26,67,51,0
0.000611959372749407,0.0009108085566823247,0.07088945167330835,0.10269050400401128,28,26,68,47,0
0.0005749899499907203,0.000840057505316754,0.07251446096073713,0.09759473871831953,34,30,63,51,0
0.0006121243916911303,0.0008485647627489441,0.07161887855498211,0.09570712378122447,30,24,66,53,0
0.000558503574451949,0.0007835574064069762,0.06718951157954597,0.08901008971307173,32,28,59,57,0
0.0005114335290868792,0.0007206377093955623,0.06326974699570546,0.08131687882243631,36,24,64,57,0
0.0004983632749035752,0.0007516557308750435,0.06019703288553824,0.08036039326048597,38,24,64,58,0
0.0004019868783794951,0.0007251317078711469,0.052650545299225436,0.07435043645883925,32,22,75,60,0
0.00039632821053231195,0.000696638691012175,0.051197264918128434,0.07149152722264249,28,26,77,53,0
0.00036898161677488745,0.0006239971719907496,0.04815392314950234,0.06305977308833806,28,28,73,58,0
0.0003272340619939816,0.0005280907062378441,0.045886576936897544,0.05371039551058645,28,22,76,61,0
0.0003547001932028241,0.0005398978598422087,0.047289263385696736,0.05661857310211517,32,20,74,63,0
0.00034571625128284385,0.0004980463090912923,0.04776593256739229,0.056408962614036905,32,26,74,64,0
0.00048598718980433843,0.00040206252136076973,0.061942596973512176,0.04782814428922255,38,24,72,70,1
0.0005252903666442563,0.00042036382490194215,0.06621852044478367,0.047665335170714626,32,28,72,73,1
0.0005120801580640856,0.0003725534116195943,0.06315530890689836,0.046391971933145815,36,26,76,65,1
0.0004990294588037427,0.0003705436633531219,0.06307708904353222,0.04508381586862842,34,28,75,66,1
0.0004940412579513952,0.00036068192013535784,0.0668541898730997,0.04405177280306042,36,28,75,67,1
0.0005126817960229601,0.0003831055167460659,0.06722139497136045,0.045321511051605416,32,28,70,61,1
0.0005718030148294219,0.0004355802920555565,0.07051446278621343,0.051885147013625406,30,16,59,67,1
0.000563020103203596,0.0004102648199734309,0.0685819845261961,0.0497559497234488,28,16,61,69,1
0.0005517532695709627,0.0004368709687121592,0.06599321553040989,0.0529306674378928,26,24,66,71,1
0.0004869440906045225,0.001655591152213556,0.06201851865358832,0.10896477577331791,20,10,73,68,1
0.00045336513962261073,0.0016695234223397077,0.06086013068502597,0.10661000150623792,22,6,79,65,1
0.0006163372039724439,0.0017208563912299451,0.077174049900013,0.1207562405410052,30,6,80,54,1
0.000710027232040218,0.0006404048824789568,0.08518699508353324,0.08119182004589116,32,22,73,55,1
0.0007315976408838406,0.0006751412644618561,0.08778631352999114,0.08652354836388444,30,24,72,61,1
0.0007351446170017922,0.0007084456329273489,0.09680061716733157,0.09012962822852798,30,24,68,67,1
0.0006969127273149286,0.0006686722311370076,0.09349434723951291,0.08426810392692881,34,26,65,69,1
0.0006928108591184049,0.0005594001160182639,0.08897271139909273,0.07615867422071466,30,26,66,70,1
0.0007392859510125825,0.0005076173815971532,0.09445018996389534,0.07118205759293479,32,30,64,68,1
0.0007147452029534112,0.0005405999369896348,0.08985067150935248,0.06872007323854534,30,26,67,57,1
0.0006501877538865185,0.0004918336178483991,0.08167325822949759,0.06627940444296081,26,32,69,59,1
0.0005917251121306331,0.00047729698639715405,0.07892257050968737,0.06217574263239155,32,34,71,59,1
0.0005750801893801386,0.0004370186274640802,0.0720078509260296,0.06066025069014254,30,34,63,65,1
0.0005853562145293036,0.00041906722240747375,0.07138344604622891,0.059600254753709184,34,30,66,72,1
0.0005285751881254372,0.00043750508825951697,0.06585451350575108,0.05562660591598721,28,28,68,71,1
0.0005500523130878566,0.0004254890712537629,0.0649548829256887,0.0562416193423601,32,26,64,75,1
0.0005266017099834917,0.0004763711285814153,0.06728886502506713,0.05702081907792272,38,24,65,66,1
0.0005389247472684513,0.0005112527641073989,0.07136270850264134,0.05653488533527359,34,22,68,68,1
0.0005751620120624393,0.0004941465437424985,0.07554143480126857,0.05710995768704059,34,26,69,66,1
0.0006414859196755462,0.0004728126940272653,0.0832881477172152,0.0542979941184453,28,28,75,67,1
0.0007132598885265906,0.0004507550024686855,0.0863796293911261,0.05461830019471487,26,32,72,69,1
0.0006263247347558658,0.0004564785661041789,0.078116977851098,0.05352012288639095,30,38,70,77,1
0.0006208510835015363,0.0004363558822415144,0.07794372969696042,0.050066360995725104,32,30,72,77,1
0.0005054986791845431,0.000476019155133327,0.06941206164496257,0.05328735080501626,32,28,70,73,1
0.0004815409198904226,0.00043628893352124344,0.05999779661702812,0.048489976235056485,24,22,70,75,1
0.0004526215986455707,0.0004237067767620368,0.059502624497809714,0.0460929511900128,28,18,69,72,1
0.0004437484421708718,0.0004306446670235909,0.05471634238538586,0.04515732478764345,28,24,63,65,1
0.0005048074589896109,0.0004089832402692919,0.05783189251303861,0.04097302879078795,30,16,64,69,1
0.00047957192741184066,0.00040821697778186213,0.060026888778625484,0.04214874195545484,32,20,72,60,1
0.0004449423143228941,0.0004281058401358342,0.05460969084438467,0.04842702198173201,28,22,82,59,1
0.0004073411200166174,0.00044395881802404265,0.05526427883373943,0.0531054370425631,30,30,90,59,1
0.00035910063209270316,0.00045069203288467663,0.04875788960754978,0.056726219575656926,34,32,82,62,1
0.0003950264312823996,0.0004562456007507161,0.05217708442109983,0.05601531492386154,34,28,76,67,1
0.000439672377737576,0.0005123325499789122,0.05390772863786394,0.05071983119316701,32,30,73,62,1
0.00043686201628158686,0.0005004023798682719,0.051588744079064025,0.049540540024779346,30,22,74,67,1
0.00043836498344073266,0.0004761217289610927,0.05184757433867226,0.04499093484449066,28,16,69,64,1
0.00038481034205463713,0.0004952294592113526,0.046599593153153825,0.05039522119186093,32,16,68,59,1
0.00039060049529351124,0.000464710163702769,0.049616922889189445,0.0502977033508451,30,24,58,62,1
0.0004001553616173908,0.00047631435293825277,0.05206662400574945,0.050812005864790316,26,22,63,55,1
0.0004220569241831755,0.00044013042712487535,0.053021467477525105,0.04951002389589883,24,24,64,58,1
0.000409540062085338,0.0003645879257287664,0.05352815879937164,0.027317903810628954,30,18,70,45,2
0.00035492143730341886,0.00032439843770615804,0.05099823817147129,0.024933801222962047,26,20,70,49,2
0.000393970165348979,0.00036351227369886346,0.04993641241249541,0.02615087960009222,24,20,67,42,2
0.000361720155493856,0.0003785061304099335,0.05193924984521309,0.02547347788364101,34,18,70,41,2
0.0003503485216077934,0.00036977924318240904,0.05038672328686589,0.024975203170499772,40,14,74,41,2
0.0003845722751843149,0.0003687288867855998,0.05329506316610554,0.02424011292110484,32,15,75,49,2
0.00037730507082356336,0.00029248097804676615,0.054156679000335155,0.0233858370415658,30,24,76,51,2
0.00035883003240108396,0.0002756460444325007,0.05120980986572324,0.022893589128391796,28,21,77,50,2
0.00031109415380542834,0.0003209585175988254,0.04560960862074982,0.023004221446339436,30,16,80,50,2
0.0006622621684721914,0.0005017214813087987,0.05461062003120258,0.03138742494295068,18,10,74,44,2
0.000644630132663944,0.0005811814875204025,0.04828148453743087,0.031857230869569576,16,10,76,40,2
0.0006410686931676296,0.0005937219455431479,0.04842054327312379,0.031251851698079945,14,10,69,37,2
0.00032695045674444,0.0005099055754009001,0.03548342318782856,0.026828514559831436,32,10,74,46,2
0.0003610016123128807,0.0007035193533790804,0.04003786725136309,0.036530122189638206,30,10,66,32,2
0.00039133487236994236,0.0007757645573902563,0.04310073349533752,0.04077827391093342,30,10,64,30,2
0.0003847018801818478,0.0008078508472780012,0.04446122495959604,0.04154251964827117,32,10,71,31,2
0.0003416169772261289,0.0006340193287232755,0.045584858808035915,0.03519270913944161,34,10,74,29,2
0.0003525649399157027,0.0005171810773737998,0.04487257911528401,0.03078048981285755,30,12,76,36,2
0.00032882626214633177,0.000558537163855256,0.04701875920340813,0.032186003272799225,28,14,74,29,2
0.0003668941265400981,0.0004941693461489263,0.04987081260063352,0.030132657030617727,30,14,82,38,2
0.00037485090781153106,0.0004986019498356922,0.050920870534211335,0.032052552974725805,36,14,79,39,2
0.0004138901110592425,0.0005964716177856692,0.056140648476594966,0.039445483020466326,30,8,79,41,2
0.0004021351754910233,0.0006864908383711352,0.05611409125598667,0.04144288836039839,30,10,78,40,2
0.0003895606907557991,0.000835293625179035,0.05475431218045737,0.05067546277004978,32,12,72,34,2
0.00043150087942205414,0.0007951654425045479,0.05869463603480915,0.048732961211284336,30,10,75,39,2
0.00037218187544622687,0.000688427498910244,0.056557362001586835,0.044379278347030204,32,16,75,44,2
0.00035577737258740574,0.0006978115393339283,0.055048528020387955,0.04444950838770305,28,14,73,40,2
0.0003834161142027769,0.0005646841650502582,0.05864856364058339,0.040333601143966294,30,18,76,41,2
0.00037741067261304627,0.0006863657274591015,0.053502895280326326,0.04518760458390349,26,18,83,34,2
0.00037569810042434,0.0007290172722418227,0.05613303244218134,0.049460290292714607,28,18,78,32,2
0.0003701092568640041,0.0007501184702366948,0.05411173049414155,0.05423363404893311,36,20,79,32,2
0.00033945045830912143,0.0007090583925143264,0.04954118933105283,0.05338046605120365,38,18,74,35,2
0.0003363770784190262,0.0006316815181236071,0.04886920169475602,0.048717171928506456,36,18,71,40,2
0.0003740483688633056,0.0006415108711940132,0.0466706749907172,0.045725900354422984,26,16,66,44,2
0.00037020469037882855,0.0005532388370539721,0.04751707511210662,0.037960592858596,34,12,64,41,2
0.0003798394320986975,0.0005612617308172222,0.046891252635666125,0.0405407507081219,30,10,64,41,2
0.00040057294674771817,0.0006489282672001436,0.04878286180761209,0.046598249848423715,36,14,63,37,2
0.0003240056451272666,0.0006717959963449853,0.04240250312933916,0.04645669969613305,40,16,67,33,2
0.0003453251865219031,0.0008630746609349204,0.045567366275523415,0.05476237790456951,32,18,74,32,2
0.00039062373472017597,0.0009214626055619123,0.051151599308622106,0.06073015645639457,34,18,71,33,2
0.0003323894411624482,0.0008593312320674017,0.04732098464256011,0.05885204130639627,32,18,75,37,2
0.0003657790244577816,0.0007707303950232857,0.0543118339077607,0.05481686902622107,32,16,75,37,2
0.00035344836080349127,0.0007092321063892972,0.053951076191144864,0.05223052944857886,38,16,77,41,2
0.0003368329982940218,0.0008354362719155546,0.05141809046294999,0.05619436377873355,38,18,79,32,2
0.00035733088711763087,0.0007413479012652316,0.052288139741965015,0.056806561157041593,36,24,77,33,2
0.0003680932375208851,0.000796496086440151,0.04942684635012514,0.06252597046539356,36,20,77,32,2
0.00039256301156763906,0.0006891037295166761,0.0527911281638686,0.05636163318181883,28,14,78,39,2
0.00038887997821286733,0.0006986898089283724,0.05010907411975893,0.0561472679923415,30,14,81,42,2
0.0004679917322995832,0.0007508356030605522,0.06125354221501908,0.055876745742449906,26,16,78,35,2
0.0001121449594892549,0.0004413724462280246,0.01664712543114626,0.05594382072724333,30,28,82,70,3
0.00012624332307027236,0.0004631004858417158,0.01717104853974896,0.05612276121016217,30,28,78,71,3
0.00011245056090133267,0.00042980340957668624,0.017115245495555226,0.05854487826677687,30,28,81,74,3
0.00010520561291116176,0.00041376970026444694,0.017057890150522642,0.05743355734509238,38,28,75,70,3
0.00011128174467679228,0.0003605201225581624,0.016905965348580264,0.05264747510149233,36,34,75,73,3
0.00010415023742747659,0.0004051312884712336,0.016675564891733313,0.05642599386221338,34,36,74,67,3
0.00012121264218493787,0.00042676719600080835,0.017545480603807607,0.05615467246118597,28,34,71,66,3
9.987913364827971e-05,0.00044438820464190817,0.016890687199848573,0.05550438361241,38,28,83,63,3
0.00010365999865419007,0.00045602842301279686,0.01690032167890693,0.05913722896954221,30,24,76,62,3
0.0003133229819799188,0.0005411118875706836,0.0284545756387508,0.07086838274349916,10,28,73,66,3
0.0003087400542183786,0.0005760649387677205,0.030518814318189876,0.0779649958182221,12,28,77,67,3
0.0003291597738149133,0.0006338781297903176,0.034144856168354595,0.08599136834541195,16,30,75,73,3
0.00018676098072677424,0.0007184325456964353,0.031242102949888537,0.10160429781564198,36,32,86,71,3
0.00017733194605268942,0.0007328018943034213,0.030499593031019546,0.10227687265430915,44,30,84,67,3
0.0001891376454351456,0.0008411868319545056,0.03056857083185569,0.11524211717756778,42,30,79,65,3
0.00020668051803987474,0.0008868565372589927,0.02977557484034949,0.12503471712867195,34,30,74,59,3
0.00021060479562841908,0.0008372526807602365,0.03125333108391989,0.11943846370408516,42,26,72,62,3
0.00019903330072049125,0.0008602061239628357,0.029176457623146575,0.12123636870168487,38,30,72,66,3
0.00019900621790563803,0.0007555291131791171,0.02954346576924878,0.10960009128265244,40,30,73,74,3
0.00018678565113830335,0.0006765214607950885,0.028471341107683602,0.10350746763550923,40,30,76,71,3
0.00016763880583744824,0.0007052298520619727,0.026732398314485012,0.10469743013717232,38,34,82,70,3
0.0001785330595202244,0.0007678243745897944,0.026611170155973272,0.10331678604535183,34,28,76,66,3
0.00016231647642499271,0.0007523448302493438,0.02373205130555141,0.0966235886699002,36,32,77,65,3
0.00017335371418807435,0.0007093148604131637,0.02473562652731341,0.09195261472423333,32,28,77,67,3
0.00015872308674461907,0.0006288235126571025,0.02371428386193049,0.08246896471396523,26,30,68,69,3
0.0001527332807169058,0.0005705321037706094,0.02238367614373059,0.07199488736862021,28,28,73,81,3
0.00015725599424118208,0.0005512562102515746,0.02408398054630455,0.07049840915171274,28,30,74,77,3
0.00014661610466699064,0.0004895453968865435,0.022068269982676244,0.06810544341373038,32,26,80,70,3
0.00016702491084802373,0.0004914172708256883,0.02179419830904075,0.06490746865386104,30,22,82,74,3
0.00015397461745403124,0.0004991104354674929,0.02117812328068088,0.06808367794787448,30,24,80,72,3
0.00014706823483669602,0.0005247026634256696,0.020771809881104837,0.06687998012226044,26,26,80,68,3
0.00015178383739385977,0.00047755672433717685,0.021140133336855726,0.06356071153498329,32,30,76,65,3
0.00013204947855395414,0.0005061608713270802,0.021282286063511572,0.06803691793164234,36,30,77,68,3
0.0001235114681489368,0.0005129732050725537,0.02172976472246415,0.06787271055354616,34,24,83,69,3
0.00011520471063059673,0.0004762729314689663,0.020892347584778852,0.06881406324453683,42,40,80,73,3
0.00010868870596496234,0.000448670956442447,0.0204136324802007,0.0704097445298726,46,34,82,81,3
0.00012198433767936284,0.0004598354403325269,0.019947641720913897,0.06284802099609786,32,30,76,79,3
0.00013677266332296205,0.0005146031806832077,0.020657088868733693,0.06281189922767444,34,30,79,66,3
0.00012685965245816207,0.0004400457081249148,0.01989151631595889,0.0564049629046776,32,32,78,69,3
0.00013371831880272568,0.000398458557284243,0.019425171989410704,0.053073845430195846,30,30,74,71,3
0.00013761801684365835,0.00034919612084173096,0.01851817896929129,0.04913655577773625,24,32,74,80,3
0.00012181949353132405,0.00034443054282264464,0.017412059881128646,0.04912441248417016,32,32,78,87,3
0.00010845768475695383,0.0003706950886026264,0.01687466847370167,0.047979865530807374,32,28,79,79,3
0.00010969590668122385,0.0003417742661295851,0.01758796061888464,0.04603879035939355,32,26,80,74,3
0.00012056313904778842,0.00033694851777241923,0.01655595487113678,0.04877478338367675,26,32,81,77,3
0.00011194083056164487,0.00033092444558358394,0.01735758333578799,0.04550272781370547,38,26,81,78,3
0.00011017185848710851,0.00036004537773612897,0.017249226428161173,0.046279902427132744,36,22,84,72,3
9.198676939020921e-05,0.000329369972536696,0.01570459345581013,0.04327489578652473,36,22,86,76,3
9.497852045672306e-05,0.0003547783598063273,0.015784493825748307,0.03971842184712983,34,24,90,80,3
5.1150242873354474e-05,0.00020352933353782438,0.005862429645484558,0.012471453923344885,24,14,84,60,4
5.883178192418811e-05,0.00020735284433038965,0.006117804965032194,0.01393090072108581,26,18,78,52,4
5.5228472674461495e-05,0.00020105023081294282,0.006497101065655436,0.014215210907741742,26,16,78,55,4
5.2507694795801056e-05,0.00019750866950612244,0.0062418042937895084,0.014312444977814599,28,20,71,50,4
5.8718222233102366e-05,0.00016442451048613596,0.006535934463206334,0.012546355481218081,24,18,71,53,4
5.33537752055083e-05,0.0001665273973550011,0.006593297608987849,0.01164801618691142,26,20,75,64,4
5.067399600849472e-05,0.00019188338832881459,0.005682491683891441,0.012236784781182952,24,14,89,57,4
5.941823461816575e-05,0.00018321482763497738,0.005763113702908424,0.012501771273490619,26,16,81,54,4
6.557537511411579e-05,0.00019100448048221358,0.006012999125854605,0.012522317852511821,26,12,75,47,4
6.532209462552939e-05,0.00018555221965087877,0.006123239033575967,0.012332180105270214,26,13,76,54,4
6.812562387757563e-05,0.00019021870030373804,0.00654578841068975,0.012169713780926834,24,14,73,56,4
5.2305586882830977e-05,0.0001853868799132182,0.006296761233003274,0.011404787017293352,26,18,83,57,4
4.896288905298239e-05,0.00018279335165917975,0.006049321301470628,0.011273544277507777,32,16,77,65,4
5.163364051133834e-05,0.00020868076426464011,0.006360329038014765,0.012234115652853438,32,18,73,63,4
6.171188371881585e-05,0.00017686256423925681,0.006943492496874427,0.011834920300243175,34,14,78,60,4
7.747380824948649e-05,0.0002702311096379334,0.007676230873682669,0.015098507935359452,38,9,69,52,4
9.624388448015896e-05,0.0002740417516457517,0.007845599326717153,0.01538797069040542,28,16,72,48,4
8.825099669991523e-05,0.0003049665510709038,0.007509112149020322,0.0160596128103672,24,14,76,47,4
0.00011309719947760501,0.0004628013184659436,0.007972652212705874,0.027955198596042695,20,12,67,30,4
0.0008924805995596263,0.003826308390979702,0.05083966328869292,0.21731968228862952,3,4,60,66,4
0.0009236612840861199,0.00400740820677049,0.0509745570188024,0.2169819901441966,4,4,62,68,4
0.0008964881618193371,0.003915925051186851,0.04863322383931129,0.20660046977779584,4,4,61,62,4
0.0008349708865081977,0.003701180320744804,0.046891072962640515,0.19968962799942377,4,3,58,46,4
7.558500809985214e-05,0.00012344172256693756,0.004277937203350782,0.00889618156381929,19,22,86,66,4
4.5738974612732696e-05,0.00013411161524359787,0.003877052876323299,0.009669698059768967,16,16,92,52,4
3.23683882779484e-05,0.000120479801640988,0.003906214533291129,0.009119096996866681,28,20,96,56,4
2.71931874676745e-05,0.00012277292265683594,0.0038129045335787456,0.009045763607434962,32,16,102,56,4
2.7369147334344586e-05,0.00010785201375670894,0.003804507130234866,0.008816427255879418,36,18,103,51,4
2.659032768375011e-05,0.00011399362939405653,0.0037455374497611404,0.00901657851803882,36,26,108,52,4
2.517566048830497e-05,0.0001291642930698427,0.0036166625310879324,0.009853520772172619,38,20,104,49,4
2.5506109081441775e-05,0.000126699715529584,0.0037843268456998797,0.009467208309081925,43,20,97,52,4
2.5649418946421098e-05,0.00013370226805826035,0.0037558224687898436,0.010068983360677087,28,22,95,56,4
2.6126717149198255e-05,0.000145715521761045,0.003786600769438558,0.009341371801886874,30,16,91,53,4
2.6964951855951265e-05,0.0001502257570069869,0.003978317207510239,0.009177363942386762,28,19,94,56,4
2.619425436151183e-05,0.0001511647017183286,0.0036628354058400696,0.009194721440354449,28,14,92,60,4
2.7795409306710914e-05,0.0001540051278511751,0.003913893759291388,0.009880535301858296,34,19,84,55,4
2.6077514447087226e-05,0.00014617353235954592,0.003801120087667869,0.010226541122387758,34,16,85,55,4
2.657721483786981e-05,0.00014735627138472694,0.003823392148033101,0.010479755467668602,34,17,87,47,4
2.6976604698840087e-05,0.00016285676118907947,0.0038403002748256683,0.010524837975247897,34,12,92,49,4
2.441691003966807e-05,0.0001669809857672851,0.003625258723600343,0.010477539779007417,38,17,87,54,4
2.876676835868252e-05,0.00014396198913985356,0.0038353473207025346,0.009720892298999731,39,16,83,56,4
3.2368503775693e-05,0.00013179339557293625,0.0039596662999711735,0.009172252880051981,32,21,94,58,4
2.9544437551791877e-05,0.00014011543334465886,0.003932886839298352,0.009518304329536985,33,20,99,69,4
2.9345129179875785e-05,0.00013671728224718646,0.0038025031642246057,0.00973811612840605,26,19,93,53,4
2.497342267944862e-05,0.00015033343501037679,0.0035413255632087146,0.01011660480838622,41,20,104,56,4
2.310077666720277e-05,0.00015091019577953262,0.0032479381081974524,0.010076359048943145,36,17,98,51,4
2.82621323545395e-05,0.00014984539528159396,0.003502496628032079,0.009824688570322378,37,16,94,43,4
2.8221816024002286e-05,0.00015395683970257837,0.004010977044785327,0.009843353459010107,34,21,99,50,4
3.0304735056661805e-05,0.0001634050096433537,0.0040983113920638505,0.010359070828516134,33,20,93,53,4
0.0004437638833939136,0.0005338747287498996,0.049789389160924055,0.056981596589914446,28,22,76,52,0
0.0004103390184137946,0.0005625880405976236,0.0430597318605947,0.052480045786966474,26,22,74,54,0
0.00036038795643243064,0.000488812967861966,0.04042354457860537,0.04465319316023719,28,24,82,58,0
0.0003653145725349706,0.00047206025935072113,0.04012798981444541,0.04617793129700459,26,24,79,67,0
0.00036342626865770174,0.0005308910349444845,0.04309323111824587,0.04781148039199783,24,26,75,67,0
0.0003075528244466182,0.0004707936413874131,0.0390764519771832,0.048402229611932183,28,30,79,69,0
0.0003063247944644684,0.0005351330246064021,0.038644311614839534,0.04815753087951329,24,26,76,65,0
0.0002946726194896647,0.0004925529246056841,0.041094515667432156,0.04701085671393003,28,24,80,58,0
0.000340965642861017,0.00044797027543214504,0.03906117222676357,0.04144045707725064,30,28,80,57,0
0.00036729327082505675,0.00043729642148112577,0.040337243423694207,0.04030093581053582,20,30,71,57,0
0.0003681525811077141,0.00035198467346545746,0.04308629782142202,0.037112944238599024,30,28,63,60,0
0.00035643601488957245,0.00034859430835328066,0.03998553526826703,0.03431574948925991,24,22,59,66,0
0.0002958040215957429,0.0003475140488793431,0.03837395429568006,0.032797215620767206,24,18,69,76,0
0.0002604949979298496,0.00038005909067382113,0.0365676905725067,0.032654432346285456,28,28,73,78,0
0.0002301748516177252,0.00037757374842060015,0.03202280939518153,0.03162699451596351,20,26,76,77,0
0.00022137617831937634,0.00033748603563757217,0.03164052152590159,0.028476863808765136,20,26,81,68,0
0.00023280071932322443,0.00036816274191626237,0.032661014564326726,0.03218457399819425,20,28,87,62,0
0.00028222048318186503,0.0003119623190931853,0.0354639594571118,0.030986113995251828,24,26,73,67,0
0.0002981281515239723,0.00033618882925484493,0.037118920305834247,0.03482752180500921,30,28,69,64,0
0.00026782173654030857,0.00036125824213735817,0.03591230888176717,0.036401556370399615,30,28,67,62,0
0.0002717976438823507,0.00033629339243219307,0.03486544981256473,0.03480520694382898,34,26,58,61,0
0.00025006637689099705,0.0003947948708754381,0.03473862758804945,0.036606908437194045,30,24,62,62,0
0.00021810012258609155,0.0003793285032174168,0.03083068360725465,0.036109010146452354,24,22,72,63,0
0.00024303908823121616,0.00037246800238304573,0.030944905548505455,0.03562356727940387,28,24,73,63,0
0.0005240709758081829,0.00041030325082123226,0.07324622671287,0.04937854555833875,30,32,59,64,1
0.0005163339268902913,0.0004405771717402359,0.06932431716422104,0.05181266250556854,34,26,66,57,1
0.0004811578251808222,0.00044590651075891784,0.06793301671449628,0.05179649433340549,30,26,73,59,1
0.0004419332536342182,0.00041106731452238696,0.059619418448290815,0.05111784485918463,30,24,74,65,1
0.00047831364839966926,0.00039371576594521334,0.059304909840460614,0.048241892532081505,30,20,72,75,1
0.0004484593503980239,0.00041915535808264204,0.05649651658578717,0.04815932531098928,26,24,75,78,1
0.0005192040329910661,0.0004121267314448016,0.0555925151129609,0.04473470904849453,32,28,74,72,1
0.000494606914674805,0.0004260981479027204,0.055353289055723905,0.04424624314811721,30,28,65,67,1
0.0004721357301336381,0.00044035010059855466,0.054701126474853146,0.04285404987177031,26,32,72,71,1
0.00039749307394676495,0.00039124569129644584,0.05544949866609549,0.039845571242582624,28,24,69,66,1
0.0004235842035836735,0.00036808202548372813,0.05694470865389434,0.04303118384467303,26,28,68,78,1
0.0004173738023515348,0.0003646987513234205,0.05875879579382279,0.04330653807359811,36,26,75,75,1
0.00045300712785456624,0.0003458339731443669,0.058910434794087065,0.04631014233090698,38,24,73,72,1
0.0004417233413687039,0.00035006775111917095,0.06208059129144624,0.04599337175103162,36,28,76,71,1
0.0004507446844414834,0.0003815689335152153,0.06355821383114656,0.04481651098663035,38,26,73,65,1
0.00047201724242534356,0.00047388808926204936,0.06694938280907821,0.05098428621637731,34,24,73,61,1
0.0004906420026889898,0.000412734835016029,0.06607243778001164,0.04702341110027192,34,24,77,63,1
0.0004739143728363173,0.00039826108336240255,0.0612071217784923,0.04741736397785385,26,26,72,67,1
0.0004507749642204927,0.0004005908581595241,0.0567234820112713,0.04848820731126442,28,26,72,74,1
0.0004602868695475818,0.00040675940515850253,0.058870217436098354,0.04528443808667905,30,24,61,68,1
0.00045231611067869204,0.0004205402578691066,0.059044452242357326,0.047220871579188826,30,20,63,72,1
0.00048078312119567007,0.0004278343855587134,0.06004788970539693,0.047697796559950684,34,20,61,73,1
0.00047909509843289385,0.000454071112533293,0.06319911097227418,0.049134225796496324,34,24,69,73,1
0.0004736372407418677,0.0004222909022044117,0.060866765844529554,0.047859795254809157,36,20,71,77,1
0.0007056456978552005,0.0008558348013478452,0.07729068207206981,0.05282470387267727,32,33,68,43,2
0.0006672380080620582,0.0006828911081426177,0.07802420040504672,0.04682334743960615,30,26,72,44,2
0.000641979923091817,0.0006473035163173679,0.08173051848427959,0.04148982612945176,30,28,71,49,2
0.000504530295414367,0.0006384037457530911,0.07201804602203316,0.04255210917808057,28,26,78,47,2
0.0005242114709917974,0.0006248313272650379,0.0719812916150991,0.0417457358831826,36,32,78,46,2
0.0004975051873150722,0.0006907604693166368,0.07188985908694004,0.04491992383262868,36,30,70,40,2
0.00045098973965580395,0.0005548940802164124,0.07002860568274737,0.03773760437699338,40,33,71,37,2
0.0004647941990156327,0.0005796661608678295,0.06757610534390056,0.03741193465213663,42,24,73,37,2
0.00042990262948583663,0.0005803073846727825,0.06336197933998258,0.034778898568309624,36,23,66,35,2
0.0004154021090099616,0.0006776406079988755,0.06154017305303511,0.0380620810101739,30,20,68,37,2
0.00034792759210038895,0.0006409643448093719,0.05409024677925015,0.04040972528101851,28,19,73,40,2
0.00037406159052789305,0.0006415479763123338,0.056639248857882504,0.04152081401559002,30,20,78,39,2
0.0003610571912331703,0.0006127818195138805,0.056552695817564946,0.04266844634751224,26,22,82,47,2
0.0003864046620537433,0.00048064473339690653,0.05278231837594071,0.035282269185092745,34,20,76,49,2
0.00035611658113899784,0.0005029302630560375,0.04934707124050739,0.03635977109843481,30,24,68,45,2
0.00030307002818577523,0.0004413406845727001,0.04459164423977621,0.032137384388430855,30,22,72,54,2
0.00029158907814064345,0.00040756744382252166,0.04264190576212443,0.028462085270386604,34,22,67,55,2
0.00032344283596818276,0.00041021302778747136,0.04762733178571415,0.029333100557611347,36,22,66,52,2
0.0002952008863528962,0.0003566085435588881,0.04951412428019171,0.02666964628701422,30,21,75,54,2
0.00030143024585146337,0.00038684842310575873,0.05120914276888166,0.02815655935649793,28,20,78,47,2
0.00031149766941162605,0.00034763128850976116,0.05231435234072083,0.026256373875351315,30,18,78,52,2
0.0002980857652423987,0.00031829938083408906,0.04849311816429882,0.025566289179448188,22,20,76,53,2
0.00034603749361099707,0.0003694228889706988,0.051613526520564314,0.026170833841031676,28,19,77,50,2
0.00035409013004721095,0.00034060584801986484,0.04949714508554565,0.02602911141637494,24,18,70,53,2
0.000186391776955537,0.0007352983051095728,0.027111442366195296,0.09095468983273503,26,28,75,62,3
0.00019412714249316646,0.0007346168938759614,0.028837601939250456,0.09692150773355214,38,30,70,65,3
0.00018468712258223237,0.0007188881775853268,0.029219175764248997,0.10222742833365887,36,26,72,68,3
0.00019963868029149659,0.000742093217716156,0.029485409031510892,0.10652627076550715,32,26,72,72,3
0.0001837185198980086,0.00080423287164182,0.02796412412414805,0.11517921786581267,38,32,74,74,3
0.00018541626726465273,0.0008403608259671887,0.02615309715873793,0.11631501526655878,34,34,77,74,3
0.00016771652348759696,0.0007203731964985846,0.02511140304047275,0.09975977334833114,22,34,77,77,3
0.00014804414188240722,0.0007006928378870682,0.023319375446745887,0.09244884227253132,34,40,73,77,3
0.00015616721659381683,0.0006212339315608928,0.023479537768870466,0.0880858991324701,28,40,66,67,3
0.0001565589049913005,0.0006413455700065391,0.023674483318933886,0.08686335345713278,32,36,67,66,3
0.00015644246107039624,0.000649910756988178,0.023978192121940536,0.09420157208071736,32,30,73,64,3
0.0001581599439184731,0.0007380609351114428,0.021733563522039524,0.09483233665440705,30,28,78,66,3
0.00014012525530075374,0.0006138999763382194,0.019915809537685722,0.08579558282526295,32,34,84,72,3
0.00012692470031483316,0.0005590291028865675,0.017062002679356696,0.07980476439271124,24,38,85,78,3
0.0001382199266209218,0.0005609497896342741,0.017911295592424402,0.07978514933473367,34,34,80,76,3
0.00012940501186369468,0.0005018831871641828,0.017899301210034094,0.07289445512285198,34,34,81,76,3
0.00012890448784576584,0.0004915515832338157,0.018889110449854512,0.06999625498430284,38,30,80,70,3
0.00014658150721390901,0.000499749227114874,0.020296026861238742,0.06538949517126152,34,32,79,67,3
0.00013167587301876371,0.0004407082263196444,0.019763134885935563,0.0645325176228936,42,36,82,70,3
0.00012037887496792462,0.0004214800970503289,0.019002224804583676,0.06312662800176065,40,30,85,74,3
0.00012598694906562621,0.0004288821181629457,0.0186057975396099,0.06541733617592797,34,26,82,77,3
0.0001174492476018427,0.0004148953920770206,0.017682621597768525,0.06213334674429074,32,26,82,79,3
0.0001013311805563136,0.000391683542163579,0.015585960664984863,0.054298535959667306,32,28,83,78,3
0.00011910937775413489,0.00045573672018325704,0.01636083893300167,0.05707111984883552,30,28,79,75,3
3.747023956592753e-05,0.0001270444318278562,0.005115456866737477,0.009618277478323422,34,14,90,57,4
3.635332040308711e-05,0.0001253699754840629,0.005252111128743549,0.009438621258244793,28,16,93,59,4
3.700494494029472e-05,0.00013013862155023036,0.0051424973218776576,0.009797361443497481,28,12,94,68,4
3.86347287744816e-05,0.0001267117366510923,0.005235642312820822,0.0098350862106501,30,14,92,62,4
3.355782381551882e-05,0.00012909031956941216,0.004734115126670627,0.009844644456683815,32,16,100,68,4
3.4175376405896236e-05,0.00013961377541707413,0.004870548307010875,0.009946638371215436,34,16,102,58,4
3.868769036318188e-05,0.00015575248603664417,0.004777502693753156,0.009958351358957626,34,14,99,48,4
3.5482897707422304e-05,0.00015982060375003561,0.004683753877610973,0.009954308236094148,28,16,102,41,4
3.683056471661481e-05,0.00014710854532314522,0.005014187278435863,0.009474904606085695,28,16,101,48,4
3.5483761615044725e-05,0.0001418038765092321,0.004773218735759976,0.009927843807355658,26,14,92,48,4
9.999064718359438e-05,0.0007306148715445081,0.008490507455238407,0.04527914889634385,24,14,87,55,4
0.00010573228023190011,0.0007545417675618825,0.009585003678936761,0.04553246835553383,28,18,72,61,4
0.0007925032535227151,0.0033645898320267048,0.045609080975272866,0.19107672185539498,32,12,44,76,4
0.0008135786985839144,0.0034423550864301406,0.04603474262064687,0.18997639536833347,26,18,48,65,4
0.0007760104672136957,0.002956137606127888,0.043856733126898716,0.16115002210741108,38,14,46,72,4
8.311945019373617e-05,0.000228944451753229,0.008299165072723666,0.016584196680409127,38,18,66,48,4
8.581909276511956e-05,0.00023712151499177692,0.008162238641900823,0.01599355286543246,40,16,61,53,4
7.846337940737415e-05,0.00024220589088227458,0.007281512679120289,0.01502999643985578,28,14,65,63,4
7.756560292177565e-05,0.0002778383994018845,0.006207486239961438,0.015398694702941976,30,18,75,52,4
8.170768052037143e-05,0.0002429204964102304,0.007105425545868862,0.013899346361419982,36,22,73,61,4
7.073225879667012e-05,0.00022440867157937612,0.00684316281081678,0.013432290222953043,28,26,81,55,4
6.784207167310567e-05,0.00019040913791973396,0.006822662056863248,0.012053292722287312,32,16,72,53,4
6.28271629433568e-05,0.00016449561524366145,0.006378994555245879,0.011510268430041508,32,12,77,57,4
5.317943250879613e-05,0.00019074154054747207,0.006124681257289455,0.01200048308855,28,10,68,59,4
