f1ch1,f1ch2,f2ch1,f2ch2,f3ch1,f3ch2,f4ch1,f4ch2,Category
0.00029727229385772733,0.0005154656627450342,0.036720665688439486,0.07707641968738484,24,28,71,69,0
0.000357984500620938,0.00071176220702819,0.0442886269424899,0.09432805838068105,22,26,66,65,0
0.00030822474700002597,0.0006629722980398428,0.04150928493118387,0.09665385270483545,26,30,67,73,0
0.0003514469299099832,0.0007095640417620862,0.04412013573747057,0.09897504917846321,26,32,63,71,0
0.00036819072461514855,0.0008059127963937318,0.04780265763838284,0.11966738069708581,24,28,64,70,0
0.0003528434752037348,0.0007974268926659684,0.04714704755053312,0.1191276961935135,28,32,63,77,0
0.000412640385353972,0.0009064336435603536,0.05165945833403028,0.13292315823762216,30,30,64,70,0
0.00037826616872916593,0.001084176298127975,0.049210660135539944,0.15838457432274577,26,32,68,62,0
0.00043205380423777247,0.0012139692479742389,0.05005693403945308,0.18374565110836488,24,34,63,61,0
0.0004582483168269527,0.001289564935913794,0.052021322581255046,0.1823768009187664,20,32,64,58,0
0.0004126974688337138,0.0013308704510896316,0.04842162243755556,0.19660699214407087,26,34,72,62,0
0.00043493528085929807,0.001228690124764972,0.049034047695345764,0.17925467103228915,22,30,70,66,0
0.0003534728590011091,0.0010654803897224457,0.046721441996327405,0.1642684401516885,25,34,69,74,0
0.0003666319266525563,0.0010588323566045922,0.046633251780166085,0.17372830315284235,24,28,66,72,0
0.00035526769597290836,0.0009742621247277965,0.04934001978582929,0.15795537261770376,30,36,69,72,0
0.000320012320987773,0.001007109135329655,0.04881771661054371,0.1662291495323067,32,34,78,71,0
0.00027252790608601357,0.001043783430498343,0.049089237439963275,0.15626428065882064,34,28,81,64,0
0.0003291120889503967,0.0010361666716031909,0.05467955694879717,0.16347846558940712,36,40,80,67,0
0.00030739076774065295,0.0012023867159793135,0.050589538765916264,0.16964466353652713,38,34,77,65,0
0.00030377467178236783,0.0013057883014691563,0.04886292169707978,0.17346563733271103,32,28,72,59,0
0.0003169161716212821,0.001314281877449252,0.04801160801725757,0.18291728608283844,30,32,75,62,0
0.00033925607344137784,0.0014312158369624004,0.048222536449475426,0.20030305819556493,24,30,69,58,0
0.00044805555913356615,0.0013057816731372718,0.05630575523053498,0.1884401182183719,28,28,62,60,0
0.00045323054786666967,0.0012614991091187,0.05798531254163822,0.18839382942654842,30,28,68,65,0
0.00043850532243862864,0.0011950887527258053,0.05973855072497323,0.19625020641910784,34,32,65,67,0
0.00039903587564048027,0.001106110214019096,0.05512594023707539,0.18471070323287467,36,34,76,66,0
0.0003350607930147223,0.0012219108881226881,0.04733591863702053,0.18671734065569207,38,34,76,69,0
0.00035561348088822254,0.001121275906003357,0.048103782593616334,0.17572962180678595,28,34,67,71,0
0.00035754260781289173,0.0009517443518415553,0.047920796228970934,0.15459338391678987,28,34,71,70,0
0.0003601610907658066,0.0012015966419009648,0.04811156641317624,0.16034469295483256,30,26,65,67,0
0.0004110710769580827,0.001358000151524863,0.05738890810500539,0.18128639359735502,28,28,69,65,0
0.00042429056328407885,0.001554878191816447,0.05944807318578124,0.19979191470493038,30,28,67,55,0
0.00041868299644769224,0.001646937744322248,0.06244409879417047,0.2072222914323978,32,36,66,55,0
0.0003904276216377544,0.0015520161301766117,0.060975237167004606,0.20972239487778985,30,28,75,57,0
0.000342728753566424,0.0014345444786220032,0.05295760135794759,0.20482618163633362,40,28,73,59,0
0.0003163950611546345,0.0011635696775075487,0.048871242608778794,0.1772595429415942,38,30,76,67,0
0.000285292962520327,0.0011193287532956636,0.043571434450023656,0.1748405656922678,34,32,76,71,0
0.0002804945645807288,0.001063897592015881,0.0427828772366975,0.16889458840503274,32,32,72,76,0
0.00030423621339636513,0.0009619645334136509,0.04543072854307241,0.15780013619468422,26,34,70,73,0
0.00033753596328911,0.0014823956287762774,0.04792057565936817,0.19236932989598912,36,26,70,67,0
0.00035126107783080003,0.0014910379422929004,0.04778000482535382,0.19041383052626007,26,26,66,70,0
0.00031566346599919257,0.001539240464704657,0.046082580635213054,0.18301064396894184,32,24,72,68,0
0.0002578107005913235,0.0010962819079804167,0.03745735357251999,0.15823026861493208,28,34,79,69,0
0.00025887329146678225,0.0011343918441389963,0.039178817223370827,0.16169589087671152,36,30,79,66,0
0.0002495138480133018,0.0012446956844585958,0.03853888611379168,0.17390222034472835,36,28,77,67,0
0.00030004291374883483,0.001171390191582251,0.0416499367581389,0.16928396035914156,34,34,74,67,0
0.00028098482214502737,0.0012123055458405163,0.04325597377855295,0.17482406078741808,40,38,71,68,0
0.0002889107600787092,0.0011806030662024785,0.03997064575167497,0.1661593282208277,34,34,73,77,0
0.0005460508496260945,0.0021381947873511855,0.06870498178842435,0.3016645194812017,20,34,73,65,1
0.0003956183025445746,0.002301439202007394,0.05108835155422105,0.3467002795102748,28,36,72,69,1
0.00039770671236030947,0.0019371721789739206,0.05296902613567591,0.3018390057103904,30,34,73,69,1
0.00045981291416791604,0.0020610890300083026,0.055740771670426945,0.3205456774663256,24,34,67,68,1
0.0003984651568467368,0.0020840954519395563,0.05176740484910882,0.3221645953544136,28,30,63,65,1
0.0003918447642390754,0.001758717823418908,0.05013114970249889,0.26620079413074466,32,28,70,68,1
0.00036238045620527216,0.0015363497651145438,0.04966136084068346,0.25212198112718537,32,38,61,66,1
0.00032383219455433475,0.0015548164648689347,0.04729958542467041,0.2487340721978108,34,32,66,66,1
0.00033437388352082183,0.0014450462481833744,0.04578151500951029,0.22945142635044086,34,34,71,66,1
0.0003319713918107551,0.0014788918644233844,0.04675880139411275,0.2408865857196777,38,30,69,66,1
0.00032916344726450093,0.001406778096778713,0.04572959906435265,0.2232075473581862,36,38,77,72,1
0.00038569050851521713,0.0013156286107296506,0.05361837541592956,0.20717519028682002,38,40,69,70,1
0.0003987449530741131,0.001309558947968538,0.05734489773505258,0.21731414817521794,32,40,67,73,1
0.0004477866534187485,0.0013512101493648367,0.059966507037312385,0.21282742199488933,32,40,56,72,1
0.0004077273666990191,0.0018333700299892858,0.061540702144240775,0.2731464338537126,34,28,64,69,1
0.0004475515969831369,0.0020239183381979193,0.06036446103649326,0.2793608512500896,34,34,64,71,1
0.0005197472667165322,0.0020663065237605197,0.06547126529798794,0.31541879492446223,28,36,70,66,1
0.0005796480025047828,0.0021664978199349753,0.07275726815062981,0.31157581319178024,32,34,71,63,1
0.0005593767518234956,0.001971956110370598,0.07315001983116867,0.274578666921358,28,32,83,66,1
0.00048482958222796564,0.001915476528670216,0.0674646627258417,0.26764579519488624,32,26,80,58,1
0.0004939946326513905,0.0017794976469711415,0.06579829533869136,0.24138260728367966,28,32,74,65,1
0.0003938069720684241,0.0016957437544174259,0.05094475982411295,0.24710327119742176,24,30,73,62,1
0.000436330460306442,0.0015149676892354197,0.05216695718464826,0.22333869449558247,20,28,68,60,1
0.00040985665739181216,0.0014134886509985978,0.053867164594968604,0.22898138002530966,26,36,72,67,1
0.00032980129951799467,0.0015862243592483895,0.04901540326326299,0.25514439048729737,22,38,72,74,1
0.00032957990393591737,0.0016379711671637165,0.05225237821829337,0.25967013139372197,30,32,78,70,1
0.0003411825667173418,0.0019164795615099265,0.0538894287213357,0.2808961109414155,36,34,79,68,1
0.00039575320264533106,0.0018116689237237063,0.05213870091352491,0.2597854818797603,28,28,81,65,1
0.00047704368450685026,0.0015406478065904824,0.06248793629630925,0.21874139386089617,28,34,77,60,1
0.0005596115903576204,0.0015502802699468986,0.07334455117483646,0.22095532549726737,30,34,69,60,1
0.0006520231196049511,0.0012809075658092536,0.08180199137626089,0.20610958240946178,28,32,60,69,1
0.0006584671233420363,0.0013916152080721636,0.0812269867980598,0.22699150093812984,30,34,59,68,1
0.0005574331285860749,0.0013265295372536976,0.07200296458962795,0.2270357371795906,20,36,71,75,1
0.0004927608604258384,0.0013222142704466381,0.062257751754684613,0.2112567702850267,24,40,77,73,1
0.00035105972419922465,0.0013993243130472242,0.05111123953839141,0.2193776646798886,34,38,85,71,1
0.00044094755595934683,0.0015074078060285177,0.06046253151767596,0.2223301436616484,34,38,80,69,1
0.0004714645902871758,0.001625437958706906,0.06173726862131457,0.2332149865606828,34,34,81,65,1
0.00046225918313803487,0.001512917139175681,0.06726547890145343,0.23106284464814894,26,38,74,72,1
0.0005076343043935804,0.001607538480921046,0.07313134851252406,0.23543357669297518,38,34,68,60,1
0.00043942465201777576,0.0011079487215422677,0.05611515774533701,0.18089849083456505,22,32,62,65,1
0.0003893810059720343,0.0006940164771351049,0.04351711633318695,0.11850819401665592,18,22,57,64,1
0.00026724878628877415,0.000541185318862769,0.026845775075476842,0.08412805148729181,12,16,52,58,1
7.424910001247818e-05,0.00024220153969372647,0.005841639030543011,0.0229347601421949,18,18,68,59,1
7.33663872934646e-05,0.000269662611602084,0.006045662275800691,0.022402858819190054,24,16,66,59,1
7.656022140533357e-05,0.0002915348131847904,0.006400055073357273,0.027023293292052032,20,22,60,51,1
7.196075974159245e-05,0.00035367575701335306,0.006267317620374349,0.033960381178383764,28,16,68,57,1
7.06981146685121e-05,0.0005754702006568091,0.006969378381308253,0.07121212644272931,30,18,78,59,1
7.848949246091753e-05,0.0014600304735316774,0.00980078134376095,0.16514992060531,28,18,79,55,1
0.0005319780365766397,0.0005322839664622122,0.0757622721585325,0.04076834166342801,34,10,65,66,2
0.0006985399735361093,0.0008243816137451164,0.10047979824304544,0.04933449657600089,24,4,74,60,2
0.000810128731992166,0.0008710293319418662,0.130638834307517,0.05488597186457818,26,8,74,60,2
0.0009534147959914513,0.000902245446367492,0.16529399022971356,0.06390930032269804,32,12,84,70,2
0.0012119702011741545,0.0004391558081802607,0.21734522691908834,0.05581058052356232,38,26,87,83,2
0.0014658415274839106,0.000382359136848676,0.2590179902380918,0.05607318346659886,40,30,84,88,2
0.0014975226694611923,0.0003624561122715019,0.2959658227846943,0.06316949516328071,46,42,85,91,2
0.0015157531548372516,0.00036051830474162044,0.2910834925702925,0.06159155116900057,40,44,81,86,2
0.0015228718336543696,0.0003073262906759166,0.27962382129917873,0.05644826191234714,38,42,82,91,2
0.0013652118282273449,0.00030035536511038575,0.2702209912568086,0.0602224351629311,38,44,95,93,2
0.0013570368473579994,0.0002781801962031427,0.2596573524222324,0.05437896662903891,40,50,102,96,2
0.0014008232312499019,0.00026849803865674273,0.2639572565213446,0.05394438769078288,38,48,96,94,2
0.0013762466372989387,0.00027218215917315674,0.27937646855753956,0.056020223780816725,48,48,103,92,2
0.001297541153970761,0.0002501170852544297,0.2666239726698333,0.05252796201383294,44,40,98,89,2
0.0011238765467433127,0.0002472432572709967,0.23150683588421112,0.04919656647227306,40,40,93,85,2
0.001143849326168794,0.00022894322554092776,0.2154749352364889,0.046241488031293826,34,36,94,84,2
0.0009603170810963544,0.00021541516056712215,0.20062819922795294,0.045173527269393214,48,48,93,87,2
0.0009138402232684878,0.00020396669752448804,0.18501300148525188,0.04057981382315689,46,42,89,91,2
0.0010009221225783563,0.0002000778340042406,0.20649870213108273,0.042359256873457964,44,56,87,90,2
0.0010922268939549528,0.00019425553905086395,0.21668366013150822,0.04105128199685734,40,54,91,95,2
0.001039881674794309,0.00018952352379123324,0.20848292615763364,0.03956195836729907,42,56,93,92,2
0.0010942951002666736,0.0001860732209142605,0.217014053812827,0.04020457094486075,44,58,93,92,2
0.0011114807440599885,0.00019669462582833075,0.20607425192362844,0.037963502533999764,40,46,94,90,2
0.0010022501053956138,0.0002053659300230436,0.19499839393638893,0.039145434645566544,38,36,95,91,2
0.0010782454496678297,0.00019211507541563218,0.22218766959227965,0.03917761057668156,44,42,99,99,2
0.0010926987757681628,0.00020706514709426888,0.21918736014808857,0.04228613285947001,36,48,100,98,2
0.0011666073082237393,0.00022212282052276513,0.21558142122404744,0.0460833773875771,42,48,96,102,2
0.0011583557007146439,0.00023820935667561848,0.22058024565150064,0.04969594156081939,44,52,96,98,2
0.0011021723871742209,0.0002449571100792649,0.1972968372967226,0.04915938201488276,34,42,88,88,2
0.001126038684619577,0.0002498545764345052,0.20057036819626786,0.04813263946919706,34,46,95,89,2
0.0012626302121103898,0.0002528458776212141,0.2206698539275804,0.04571986214040636,32,36,98,88,2
0.0012443877514346376,0.0002563931764861844,0.2255102762538665,0.04650639254174099,36,38,90,87,2
0.00119357035747527,0.00025642806847798056,0.21717948150190886,0.04498398893981734,36,36,92,86,2
0.001226352186097591,0.00024110542944798426,0.2176045613239128,0.04453188528808315,30,38,84,85,2
0.0011959102289643602,0.00024424036717421243,0.21467299902826992,0.04348048428091391,28,34,86,87,2
0.001130998397524291,0.00021360060201433288,0.2140941851619367,0.03826868957791937,30,44,90,90,2
0.0011548719078251935,0.00023443802614221714,0.21950791780617304,0.04311416691185044,30,36,88,91,2
0.0011750461790888352,0.0002677374086991336,0.2254760746655911,0.04928264764884499,30,38,91,93,2
0.0011704346528742633,0.0002899729250453843,0.22929006842706204,0.05244046627030953,38,40,92,86,2
0.0014443061145669677,0.000641556157705664,0.21003257021628224,0.06386988596351288,28,20,89,75,2
0.0013679666528237915,0.000629696835565475,0.17309982840110877,0.055882507475793916,22,12,81,69,2
0.0012162301785812945,0.0007420023112728511,0.14167171997969744,0.05106564292811308,18,10,78,59,2
0.0005820530313445248,0.0003785788950806819,0.08248282156625186,0.0315442808398991,22,14,75,68,2
0.0007705683380639525,0.00040571205966638394,0.127400434291932,0.039846384216953516,32,14,76,71,2
0.0009446181464084406,0.00041748851155109135,0.16229111554127418,0.04519217061238544,30,20,82,75,2
0.0011124674097825582,0.00025809224448832755,0.2033679952877368,0.04801024533153499,38,38,86,87,2
0.001342719799762437,0.0002559519438799355,0.23546043022524296,0.05168091585210784,36,42,86,91,2
0.0014422760761729561,0.0002454388432597688,0.23993590913820864,0.051896633380475454,32,46,86,89,2
0.00014462564954886528,0.0031842494200953636,0.01750357001196082,0.4356974542549875,24,28,72,61,3
0.00015823894473234454,0.0035967672180696776,0.019427751563198384,0.47897049655417945,28,28,74,60,3
0.0001545260698612529,0.003933088267274286,0.021411455700411322,0.5264924753191853,31,30,74,62,3
0.00014592544089360785,0.003963818796435387,0.021373264420541757,0.532032501219373,36,24,71,56,3
0.00016183730404001836,0.003809640484971151,0.02244592282735978,0.5040589753067185,35,24,70,63,3
0.00015790814426818966,0.0036808547378629902,0.021711012514767366,0.5177977351254124,32,26,68,61,3
0.0001492270083240542,0.0039365410220131205,0.019526297177791398,0.5210818706701984,33,20,73,63,3
0.00014883835447576494,0.0040377515716567116,0.021262863292411,0.5412406172501271,34,26,76,65,3
0.00014406324477452727,0.004266768852644797,0.020246777168358834,0.5590611311198312,33,28,80,60,3
0.00014078261701421099,0.0040456328907737624,0.019778575160907814,0.5360052047533155,30,26,85,59,3
0.00013411084408983107,0.0040433243118,0.02039744019776717,0.5425220753566533,31,30,88,60,3
0.00013762287089329742,0.00468183338119116,0.02179148044959453,0.5922578125424051,30,22,90,54,3
0.00015399044598741777,0.004348378635266144,0.02255080313626676,0.6229676948739528,29,28,86,53,3
0.00013734899649401214,0.004512637448513745,0.022564621752206696,0.6530499760012546,34,28,81,56,3
0.00014513773087365797,0.00400163098800961,0.023121884608834742,0.5804244610209193,36,28,83,56,3
0.00014470586048979424,0.0038762341774703554,0.02240300224917709,0.5256040458225067,44,28,83,57,3
0.00015866219653203826,0.0035212601373588825,0.0233655154030685,0.5016116211809938,38,32,89,58,3
0.00014561737212871875,0.0035168180153832634,0.025039782556201817,0.5019661301662405,44,30,89,65,3
0.00015834098106868897,0.0035707337685391125,0.024761605856804723,0.5003877304901546,37,28,87,57,3
0.00016054026448275062,0.0033014659024220797,0.02474760289678772,0.5016193686177144,32,30,83,62,3
0.00017268185042757428,0.0031712489786331504,0.025471961529120447,0.4546890397684957,36,22,86,61,3
0.00017057091144362252,0.0032773738243793045,0.024852939608093295,0.42554092616361444,30,24,82,58,3
0.00017656690140513634,0.003434916918132443,0.026617284891171326,0.46161559790802725,40,30,84,56,3
0.000175876004284598,0.0035517869044754007,0.02778372753025659,0.4595135974481145,38,32,83,55,3
0.00016808239513023827,0.003494357724463397,0.027246753569577304,0.48084875646002423,43,32,76,56,3
0.00018421616646148662,0.0032407674755732703,0.02809214249313122,0.4515005509232224,36,30,83,56,3
0.0001824200421717553,0.0032561946608537485,0.027805817301854607,0.42014018629666416,34,24,77,54,3
0.00017684887596372087,0.0031105542913452146,0.025621551267180707,0.3966295289936118,30,28,77,62,3
0.0001727292946572918,0.0028669959666083097,0.02469858772400022,0.36398919172516286,27,26,72,63,3
0.0001675361381364774,0.0024056225862086594,0.023689961760750645,0.32504333104428607,30,26,75,65,3
0.00015754553596357797,0.0024129119054888833,0.022426086141177692,0.34918243297187823,32,30,76,66,3
0.00015836198106995264,0.0024646744553587724,0.021640622214082004,0.3413675141275289,36,26,77,62,3
0.00012917681615776325,0.003058968837856642,0.0205279933660849,0.38199292185841344,43,28,78,61,3
0.00013344152024743485,0.003085955791702094,0.02047069983835951,0.39849905320501094,32,28,80,58,3
0.00013261267914771313,0.0030902116721846858,0.02075117531203417,0.3813741890399726,32,26,79,60,3
0.00015517096245802996,0.0028320329852008375,0.021375971557580357,0.3574559310774144,30,30,79,64,3
0.0001447101023027767,0.002585152723301577,0.020753055523755993,0.34058805286493044,34,28,82,66,3
0.0001347560053810863,0.0026755324768747606,0.02184123953427053,0.3563044536052125,36,32,78,59,3
0.0001485606852132424,0.0026867646281983504,0.022309718832833277,0.35902004856423686,38,26,81,59,3
0.0011124600010110255,0.002502667800005273,0.06662913127507887,0.3429977678759164,4,20,64,68,3
0.0011939619748568963,0.0020619194555821464,0.06817579998323767,0.2740932086738838,4,28,59,71,3
0.001181238483435272,0.0016877862059862993,0.06594956795522905,0.23383487657915056,4,26,54,73,3
0.00014051118601201591,0.0011722832534589783,0.017386442970236008,0.1894638274226068,26,42,76,77,3
0.00013707083951140875,0.0014132302105125368,0.018288077474406726,0.22916911342882743,35,30,84,75,3
0.0001495344974964166,0.0019242869834309147,0.020155489394944742,0.29483724665349237,34,26,86,69,3
0.0001634024955567053,0.0019008469986667126,0.02119152527681889,0.2873328763638749,35,30,83,70,3
0.00016391264341311936,0.0022368032089684345,0.021099193523939474,0.31562143585848706,32,32,81,64,3
0.000172603900935631,0.002632392916875285,0.02146873695067291,0.31760809507473053,25,28,76,63,3
8.396030245456926e-05,0.0002150165992578252,0.007955044502140709,0.02069875705592724,24,18,68,52,4
8.372312946519563e-05,0.00019520304558508057,0.008360115464880018,0.019238286253709058,28,20,64,58,4
8.615553727418826e-05,0.0001865911524232243,0.008476669618347444,0.01974090301838014,24,24,68,56,4
8.130498553055848e-05,0.00020877041981901952,0.008255150484389698,0.021613273971021744,22,20,69,60,4
8.323996034918878e-05,0.00021742242933892516,0.008370985673045537,0.021151811018558855,20,18,70,56,4
8.204809972147297e-05,0.0002615033111105912,0.007981355335939397,0.021360540893425692,24,14,76,50,4
8.344586926141838e-05,0.00023014642955647457,0.007454219982672221,0.019350273668983314,20,16,75,55,4
8.067936233301608e-05,0.00020862279445125518,0.007673484091870516,0.01743222357257879,18,22,76,61,4
8.186547122735763e-05,0.0002057380587443687,0.007706274881859855,0.018758871264529662,24,20,72,55,4
8.155864770302288e-05,0.00020892762064168776,0.00808349058353445,0.018562049936001433,24,22,72,58,4
7.870514142524452e-05,0.0001886962129440824,0.007849381341937443,0.018774552137214084,26,26,66,61,4
7.498771340807425e-05,0.00016618548382558423,0.007626616607119251,0.01720301618161182,24,24,68,59,4
7.299125418768268e-05,0.00017894884484928846,0.007312377547613649,0.016747053184876383,26,18,72,60,4
7.5530897942179e-05,0.00016485457587309374,0.007425419155936701,0.015293216878610403,20,18,70,57,4
7.32815559348351e-05,0.00016765734717503304,0.0074507607936343785,0.014703534928425065,22,20,74,59,4
7.456378255752044e-05,0.00018396903291227805,0.007640029467062839,0.015996731797231024,24,14,75,63,4
7.199250798952712e-05,0.00015899006846930162,0.007914008960083572,0.015326821595463273,20,16,68,71,4
7.87960106104911e-05,0.000173381976847608,0.007981098392560417,0.016792449640620672,22,16,68,65,4
7.731306937939494e-05,0.0001759602997326448,0.008106217582829364,0.016471894802847022,24,18,71,61,4
7.737178481623589e-05,0.00016616631096051817,0.008076352569036264,0.016940137775991092,26,16,76,58,4
7.677292227346686e-05,0.00017085036319919214,0.007974442973712857,0.015796477540604995,30,20,79,56,4
7.248090488458325e-05,0.0001377971898602507,0.007754835413881484,0.014349898296425035,32,16,80,60,4
7.169737013411398e-05,0.0001413010530603327,0.007723216582966075,0.014752036914479714,28,20,79,65,4
7.254494549521182e-05,0.00012970435238742603,0.007814663726350132,0.013053357040065045,26,22,78,70,4
7.257331717270439e-05,0.00011251421629499067,0.008073566004261236,0.012505195702452012,26,28,74,73,4
6.840172256105858e-05,0.00013611246580732655,0.007749141703083393,0.014479462926116272,28,24,76,70,4
7.121573958437737e-05,0.0001262342601597332,0.007998826087041087,0.013667160451572196,32,18,74,75,4
0.00015443862766551967,0.0002464986994425726,0.011390029951164424,0.01922769772549089,18,20,56,63,4
0.0004284914732896177,0.002395318897477058,0.024859220105028904,0.138793256163279,5,5,52,54,4
0.00043671481388950044,0.0025472837739450786,0.024755810129696767,0.14055011197195208,6,4,51,62,4
0.0003962890131451384,0.002471229387764387,0.02186451794115102,0.1357689634873777,8,4,51,52,4
0.00035876575215764957,0.0023327668235770464,0.020282709297924528,0.13187342077622122,4,4,55,52,4
5.7055997987771126e-05,0.0001860316543569048,0.0067152044637809934,0.025830905639106973,30,40,80,72,4
5.873888046114004e-05,0.00020219319049093868,0.006225655350740569,0.02539329432513869,32,34,74,73,4
5.769585922667337e-05,0.0001888986060658091,0.005831034455440035,0.022676108290894826,30,28,70,73,4
5.860418324876883e-05,0.00015105035286659262,0.0057940980906206595,0.02225203728483228,33,26,64,69,4
5.787043613132687e-05,0.0001401364750189428,0.0056512961264038675,0.019913752318521445,24,24,68,72,4
5.985558161642481e-05,0.00012740654673790535,0.005576592190690809,0.018569886508498758,31,30,72,78,4
6.189482349463232e-05,0.00011687981471189412,0.005788714538208412,0.018203381622364165,26,38,73,74,4
6.219050550968653e-05,0.00012967984608971148,0.0059555671370444905,0.017046798542681797,31,30,72,72,4
6.147270616924787e-05,0.0001378110715359355,0.00575949414866156,0.01756221380370885,26,26,72,73,4
6.277197713816996e-05,0.00014474685099943806,0.005841135706503474,0.017045123624313766,31,24,70,63,4
6.411554607449462e-05,0.0001502406216389101,0.005473326238139039,0.017401554950167514,28,22,70,57,4
6.254941969652406e-05,0.0001361149636492268,0.005628338220908654,0.01607296177480678,29,24,74,66,4
6.0724933584372315e-05,0.00010624269257843602,0.005412050448082689,0.01318044308243458,26,22,76,78,4
6.186567053031043e-05,0.00014178357928388216,0.005428813223431034,0.019019353987662604,27,28,72,74,4
6.377263575414362e-05,0.00013908728145837506,0.00552735108480014,0.017533824603290282,24,20,73,77,4
6.344538597750655e-05,0.00014258141286255002,0.005095644362879174,0.01835371244249232,35,20,76,76,4
0.00024627641496589696,0.0009217752639844254,0.03664759396809999,0.12370258686736828,24,30,76,79,0
0.0002458993800677319,0.0010434681414003815,0.034176115770602505,0.1367208815481264,24,24,71,78,0
0.00026661874521840737,0.0009875125651966526,0.038335909348217095,0.13409064369156246,24,24,64,79,0
0.00027361152206605114,0.0010524746171565078,0.0382341825525749,0.14642708262511708,26,22,68,82,0
0.0002429646398478823,0.0009960246891743663,0.03509254965269286,0.13907659411279433,26,26,72,75,0
0.00028072866964367195,0.0009177798427453363,0.03663340494135019,0.13886026751134964,26,32,68,72,0
0.00025331971977756324,0.00092479738049847,0.03230539501654423,0.13563108968832693,28,32,72,73,0
0.0002583980441791827,0.0009745734420985705,0.03475081485747151,0.14177520284951567,32,32,71,79,0
0.0002698132431991164,0.001070951958992132,0.035490874187817746,0.17336575490974787,30,42,75,79,0
0.00022123433331813883,0.0025508376637891237,0.028969635875755104,0.21724746624370606,26,8,75,74,0
0.00021126937008171927,0.0024975937992489576,0.02455515534024134,0.19351470386306915,26,8,66,75,0
0.00015162086223750404,0.0023502983772267553,0.01585269203428832,0.16119861718211476,20,6,70,59,0
8.361335226442535e-05,0.0003977941314758542,0.009831180313564246,0.040781550675426465,27,12,77,68,0
0.00010175745488223904,0.0005113188705582629,0.01245601345470084,0.0659801815485757,36,24,77,69,0
0.00015772099398473716,0.0007115092040931013,0.018552303337229036,0.0995355502297172,30,26,69,67,0
0.00021535254118722696,0.0009597064275000706,0.029524069818228398,0.13352449050518253,28,30,70,65,0
0.00024649556072254967,0.0011129184558879663,0.034825722758111084,0.16285931692886996,30,32,71,69,0
0.00027138056425470984,0.0011253351080092308,0.038961705545122634,0.16914228579628127,36,38,64,66,0
0.0002923457641046336,0.0012137943621815797,0.04027694619623752,0.16578112480937024,30,34,68,70,0
0.0002638797927871172,0.001033395458179117,0.03762822600418247,0.16222276865557095,28,34,73,69,0
0.0002767738219447528,0.0009859481658903793,0.03742428279734076,0.15457757005304534,30,36,69,75,0
0.0002964940690783075,0.0011268447231233064,0.04309045570324157,0.16260144497287712,32,26,79,73,0
0.0002964830302846401,0.0011463477908777906,0.04250121669290862,0.18077212017953,30,30,80,71,0
0.00034439062628555795,0.001194144468397651,0.0457048274375003,0.17367848441143807,26,28,77,67,0
0.0003536526628377135,0.0012351151570463258,0.04764728999527726,0.1758473097000237,28,30,74,68,0
0.0003537829125058624,0.0012250421638948308,0.04334409491374174,0.1770296449805709,26,26,72,66,0
0.00037077781624594614,0.0011563438511455225,0.04812844958039838,0.1679047573807558,28,36,71,68,0
0.000345005570075853,0.0012114262033166572,0.04594982541135048,0.17446935079635204,30,34,77,66,0
0.0003257289074338868,0.0010879173551278825,0.048082886966682954,0.1591942968913631,32,32,73,67,0
0.0003364448113174002,0.0010686339283225619,0.04657318543194769,0.1445266688028576,32,30,79,72,0
0.0003337114266270809,0.0009963967046811623,0.04754560326359118,0.1381447193876155,36,30,79,76,0
0.00029087577731912314,0.0010636258468877835,0.04453135952919987,0.14154090563742214,30,32,82,69,0
0.00030292233445199497,0.0010130980604174974,0.04473016202182098,0.1414098495884779,36,32,77,72,0
0.00029549382899454827,0.0011307118263323467,0.045510665418425716,0.1573364360557501,32,24,74,68,0
0.0002773444997261296,0.0011647548907641784,0.04140271431327027,0.15502606471346933,32,28,70,71,0
0.0003173013191290795,0.0011397257717415102,0.043871969335616434,0.15173961418471182,30,28,73,68,0
0.0003223053929326518,0.0012586715561678798,0.0432665342507574,0.16160342169367578,26,28,76,64,0
0.0003371040469544558,0.0012248139934044008,0.04368705270885772,0.16583722755885114,22,24,73,63,0
0.0003212538275122884,0.0010622069818803195,0.04266807592489799,0.1610353336854655,24,26,74,67,0
0.00034313265111767595,0.0009301496343255139,0.04160377541290097,0.1522292033118467,24,30,66,80,0
0.0003069394316298963,0.0008881678486492747,0.040203137493299325,0.13688582785661965,34,20,69,82,0
0.00025081949773182955,0.0007881322097167151,0.03531871598637602,0.12388420880041218,32,24,66,81,0
0.0003235928127518427,0.0008246267376298194,0.04141341468389739,0.12204359170845468,30,24,67,84,0
0.00034091505643908595,0.0009186323962675373,0.042348771711132605,0.13514443352895614,22,28,62,77,0
0.0003180027718480206,0.0010063799304925209,0.04523717180989386,0.14337913949296058,26,26,69,79,0
0.0003524139537054487,0.0011431206978341497,0.05134507641029683,0.14391547213588066,26,24,66,77,0
0.0002906400940155703,0.001224882123484715,0.04594249925238046,0.15666009515057439,28,30,74,74,0
0.0003024880756315568,0.001095398885147542,0.049404229690646013,0.14709155791617828,28,28,74,77,0
0.00029045266745420726,0.0010125887855811375,0.04350789604800053,0.1364634389622643,26,30,78,71,0
0.00020898954911633425,0.0017639552739899672,0.027726339365791736,0.22974328503585728,42,28,77,60,1
0.00019004449694308138,0.0018655371515290257,0.028486833571778974,0.25592582288571825,36,24,80,59,1
0.0001683002108166597,0.001888473405658537,0.02728350153336129,0.2560787264797211,40,28,86,65,1
0.00018779039312583727,0.0017489896408470931,0.02870718391565127,0.23410516932680878,32,24,88,67,1
0.000227434564220446,0.001586987955769256,0.03496880212446619,0.22588747276672208,32,34,85,71,1
0.00027658332405912817,0.0015530311674149145,0.03989918226651212,0.22894093750530972,26,34,77,72,1
0.00032024824682459383,0.0014580392600212905,0.04701687946539591,0.21773871724609564,32,38,74,66,1
0.0003468012769310786,0.0018965639142466374,0.049406819271367676,0.2650252893913897,32,34,74,59,1
0.00034267372704879605,0.0021397250053621854,0.04718021185500073,0.28368085729578046,36,30,68,54,1
0.0004012002351899115,0.002417081559156411,0.05185495447253504,0.311726987234731,24,24,74,49,1
0.0005927160175018562,0.0024174272152809326,0.0699548697470907,0.3335963174015387,20,28,70,57,1
0.000620404219773165,0.0025427364040357015,0.07240666396526907,0.33457737882588656,26,22,72,59,1
0.0005901322934348812,0.0021679435026201923,0.0679559109054886,0.303337918743491,26,26,67,65,1
0.0005334947686622282,0.0019513842669457266,0.0650849703525188,0.26445712777451325,26,26,65,65,1
0.000351075624263677,0.0017850157994917992,0.044504434532858655,0.24683698136516238,30,26,61,72,1
0.0003384184694177141,0.0015077336867903566,0.039892523945400514,0.21723262077238178,28,26,64,73,1
0.0003261990016332669,0.0014485291050682014,0.03923254520100329,0.21968152441152286,28,32,65,72,1
0.0002977622149591094,0.0015406896283520135,0.039241381194903814,0.2350333561064461,40,40,74,74,1
0.0003113095390207402,0.0016544224904145109,0.04228697251115205,0.24937337649032779,34,40,70,73,1
0.0003060340714304259,0.0015922257763640256,0.04292558162500798,0.25050826377912955,34,40,79,74,1
0.00029955281333991166,0.0015659620808849695,0.04371664042816476,0.24912760692898475,40,36,81,76,1
0.0002899359271329716,0.0016025302312151523,0.04329641711266365,0.25816397143032593,40,38,79,75,1
0.0002466505574454179,0.001714590021096309,0.040594528926192246,0.24557026571512852,42,30,86,69,1
0.00026550442494867934,0.0014974640257551972,0.042906029387625014,0.2510827554884431,38,42,76,70,1
0.00032779467061230485,0.0015057058117375535,0.04587831808006647,0.25027503545726154,40,46,75,68,1
0.0003006708721123719,0.0013093429894863488,0.044910418537909225,0.21077809088165408,34,38,76,69,1
0.00030233527296328965,0.0012882492000297061,0.044014854501274715,0.20407372790341696,32,36,72,73,1
0.0003390780512253666,0.0011812878137541795,0.04437234277635996,0.19021045116121754,22,32,70,70,1
0.00032162221673686324,0.0011864412088753394,0.04272610939937847,0.1966097492906985,28,30,64,71,1
0.00033378095807606514,0.0013177351027820966,0.04308587576119443,0.2078650037073356,24,32,66,73,1
0.00033816967670649,0.0014157736139595199,0.04393852171451726,0.21452827844235275,30,34,67,71,1
0.0002807581779910618,0.001449963837973352,0.03861072308795825,0.218475354522166,34,36,71,70,1
0.00025901799910704195,0.0014204386039716856,0.03628906458352456,0.2175000431864453,38,32,69,75,1
0.0002487381196704783,0.0014456031754202917,0.035035746384787694,0.22004058183348027,38,40,72,72,1
0.00023129014725176527,0.0014073042935460296,0.03374820022338554,0.2227225102880173,40,36,70,75,1
0.0002374986843694429,0.0013681886013403987,0.03214949026086849,0.21123368920868696,34,38,68,72,1
0.00027459856803056543,0.0012993516124141045,0.035125278917086056,0.2087802517225574,28,38,72,67,1
0.00028755133733160605,0.0012412887060268079,0.035411961709428834,0.20886023877734286,26,34,74,73,1
0.0002865566091768823,0.0012935694987340006,0.03655823889947724,0.20479763678384058,24,34,67,65,1
0.0003047448236632127,0.001364101858149655,0.03789143350843467,0.22409999164510244,26,36,71,69,1
0.00030466050345525253,0.0013353566830412603,0.03840644485275754,0.21027542994312573,28,34,58,69,1
0.00034344511292210727,0.0013108754225903043,0.03906039565076891,0.19768206818983416,28,36,58,70,1
0.0003456584966033648,0.0012634037389254716,0.04017164907492111,0.18426515700545465,32,32,60,73,1
0.00037323767155995695,0.0012638370657124113,0.03998247844231527,0.1699669582078346,22,36,57,72,1
0.0003084669839067193,0.001302899622957801,0.03950081327077443,0.17984177053582426,30,28,63,65,1
0.0002803736493384473,0.0012420890084873888,0.0368301035701187,0.17378472612986806,38,30,65,69,1
0.00027374332971493186,0.0013443452511444846,0.034957348734517675,0.1892116549128414,36,32,71,61,1
0.0002667226268533566,0.0013915939454207874,0.03393999688042078,0.19140069939280813,28,34,69,64,1
0.00024987542250064606,0.0013449897096838512,0.030643639112030118,0.19702218156852924,28,32,65,64,1
0.0009828233252237328,0.00020344046670608078,0.17308794835443495,0.04288100677395839,38,50,93,91,2
0.0010408053906250773,0.00019871404019726892,0.18385075338623733,0.0420900649784811,42,42,91,90,2
0.001283535725731922,0.00023886298769603415,0.25576575638755794,0.05047558808653697,44,44,95,88,2
0.0013971839938343342,0.0002707583063811755,0.2813758354479491,0.05390622786490661,46,44,95,83,2
0.0014500160974511593,0.0002942982113100267,0.2927463264773873,0.053670597531396046,40,44,86,81,2
0.0014475124043948637,0.00032807496274053847,0.27909363633689327,0.05975659984742197,36,38,85,87,2
0.001235520187052211,0.00032946803576850906,0.22479463640490044,0.0590691233897752,44,52,79,83,2
0.0012512607203379678,0.0002947815238314679,0.2082984773384044,0.05653073068355247,38,54,81,92,2
0.0012462828397887733,0.0002824846607440241,0.20239513032321388,0.05506280608528951,38,54,85,94,2
0.002081594118633513,0.0003926354908575353,0.2563532837958843,0.05370549330165111,26,34,80,91,2
0.0021261512160384286,0.000366513997372861,0.25350596893725397,0.05012211483951153,26,30,80,92,2
0.0021366242530862826,0.00039009061699522683,0.25951116723857665,0.05181506529956062,24,28,84,85,2
0.0013346183287628133,0.00023060535018192428,0.23058592550926463,0.04841482677831293,32,44,88,86,2
0.0012518358982892823,0.00024409277313349964,0.2259943444462883,0.048361376509782464,40,38,90,83,2
0.0011478586634176046,0.000257667421665164,0.21334314328922208,0.04709347883850246,34,38,90,81,2
0.001094439992479323,0.000259212773971489,0.19758604737236088,0.04186058892513757,28,34,91,86,2
0.0009547052520957892,0.0002223232285801615,0.1693546477307703,0.040710626389268235,34,44,91,89,2
0.0010160522914116742,0.0002457127244797838,0.16894807776935716,0.043679958401704015,30,42,92,89,2
0.0009697815131557756,0.00022866639166564489,0.16963230113655614,0.04186579261188702,46,40,104,85,2
0.0009740582507537586,0.00024215598179362714,0.16746557477505392,0.041917602966505804,42,40,99,86,2
0.0009446618811219491,0.0002334725723796117,0.16598489422645343,0.041724474068009866,40,36,93,81,2
0.0008793488613063258,0.00019304984804925258,0.1557438345495958,0.03624789951374616,40,38,94,88,2
0.0008267249259009219,0.00017387241630711044,0.1537985227853512,0.03520498260468779,36,46,88,88,2
0.0007948780375877481,0.00016672038718683587,0.15154928692905123,0.03320052703515058,40,50,92,91,2
0.0007854940003854863,0.00014335738892499422,0.14491769274861416,0.02750475252140199,44,42,94,96,2
0.0007124201305684075,0.00013398759562169624,0.1327045240634719,0.025123510127892233,30,42,88,88,2
0.0007688408240541823,0.00013884484548905708,0.12694020090439467,0.02303676704413717,30,34,85,89,2
0.0007410463824058279,0.00013672319540155588,0.12038230537921707,0.023034488403181636,32,40,86,90,2
0.0006557641014429851,0.0001374262413922231,0.1285734011814708,0.02547067006838983,30,44,88,90,2
0.0006992281156967674,0.00013127426641688987,0.1418004787498986,0.026421264806933374,38,50,97,95,2
0.0007391142851462325,0.00012920378983768374,0.14448812083215487,0.027370677747199545,36,48,98,94,2
0.0007664832127933574,0.00013539484375860554,0.1509416823458031,0.027295152866113347,36,44,98,100,2
0.0008009471305703171,0.00012203699757779685,0.14909690399668812,0.025887116215641662,42,46,98,97,2
0.0007866236842983048,0.00014323807160326958,0.1471590519267054,0.028505334401839104,38,46,88,93,2
0.0008228452458678117,0.0001650965252211091,0.14609236026222827,0.030228721296762306,32,46,92,91,2
0.00109484112462862,0.0001836763092901034,0.1647770635970194,0.032552249214474006,28,44,87,87,2
0.00103371869892034,0.00020141299579134791,0.16743678846981228,0.03447859262925354,30,46,82,91,2
0.0009878214832279978,0.00016652437363752693,0.16627614422080444,0.029934477031687893,28,40,85,99,2
0.0008605271646953261,0.00014437788305327417,0.14344974883211423,0.025769599282212993,24,36,87,99,2
0.0008495140582015433,0.0001286500513134255,0.12673752065719185,0.02498487427021268,20,42,87,91,2
0.0006369796681008086,0.00014716714535050425,0.12465677777705496,0.026056072570322875,30,42,91,84,2
0.0006355365800809433,0.00015444243123668994,0.12117561056722069,0.028863515407301997,36,44,82,79,2
0.0007633505355614746,0.0001650697649116293,0.14813630527106858,0.03230920693724355,40,56,86,85,2
0.0009095431679547382,0.0001693498609348006,0.15708441057159298,0.03328556564976786,40,50,86,92,2
0.001000628998123475,0.00017069364020738103,0.1670744855125751,0.031205311911779145,30,42,81,97,2
0.0010091732752532294,0.00022014674253887807,0.16866458069558452,0.03583846434942974,34,48,87,95,2
0.000942096070344159,0.0002189597734000353,0.15772906258836533,0.034989002413149686,34,42,91,83,2
0.0008441816034988694,0.00021550548267561882,0.15368601836481743,0.03370708134381885,44,40,88,80,2
0.0007003069608375784,0.0001885914638862638,0.1289884071904809,0.03162868046870774,42,30,95,85,2
0.00010580445778412547,0.0012424681701313197,0.013715068436289293,0.18119865933173537,28,28,86,63,3
0.00010445194387982899,0.0013487242133099018,0.013392021291235286,0.19138098130134687,36,32,80,61,3
0.00011159721001771745,0.0013008140958388262,0.013435459241796658,0.19861316506723795,34,34,80,70,3
0.00010569247479981439,0.0012741021809680737,0.013787294369911902,0.1947556077547081,34,30,86,74,3
0.00010918395529807562,0.0013200540600446082,0.014201694775813473,0.1899620476816877,26,28,82,70,3
0.00010661947765585614,0.0012182698705863729,0.013468127416038006,0.18448587503522831,24,30,78,74,3
0.00010034349057333731,0.001143395721954888,0.012032178425592349,0.16955398616536435,26,32,82,72,3
0.00010805573045134817,0.0010932483998124093,0.012828503744808173,0.15777879878856055,28,30,76,70,3
0.00011103465748241996,0.00112063853314771,0.01282843795279489,0.15824842894821586,30,32,78,64,3
0.00045389964176534986,0.0010997435855122641,0.02907584387749879,0.16274538223016866,8,34,61,65,3
0.0004424026881944308,0.0011632002850314048,0.02953483658847945,0.17369666433773964,10,34,63,66,3
0.00040709885462838867,0.0011955306368190836,0.027476250985725818,0.18190740154934296,8,36,63,72,3
0.0001346049419743549,0.0011930633441474766,0.014593669341195019,0.19792752241183798,23,32,76,74,3
0.00014278808663691404,0.0011471340402125262,0.016500246828498287,0.19455648053528038,22,34,72,72,3
0.0001462808587518395,0.0011842777626532913,0.017149287365581276,0.1955108930513129,36,36,73,66,3
0.00013020085295298485,0.0013268369652632602,0.016720382809761954,0.202599174247436,32,30,78,67,3
0.00013791737865005837,0.0013188545505795428,0.016801925396335897,0.18762489984775063,28,34,71,65,3
0.0001321628889710121,0.00145445865746328,0.014829364077124787,0.19443372412499094,24,30,72,65,3
0.0001349960655090528,0.0014925848268522565,0.01601450094029263,0.20601827164167427,28,36,68,62,3
0.00014724664689495304,0.0014493724104094208,0.019021493378152118,0.2031005851727742,32,28,70,64,3
0.00016216707409196976,0.0012944956848953927,0.020922603356941155,0.20550253518734274,34,42,66,69,3
0.00015718692834554724,0.001403078020021091,0.022432127545771587,0.21683453053778415,28,36,68,69,3
0.00016340007129272722,0.001396719307398276,0.02158471628250854,0.22270570813754714,26,34,69,72,3
0.00013928156155570206,0.0013576553618672629,0.020066041494094845,0.23133846502258681,32,32,74,77,3
0.0001277435847279401,0.0013189647040904593,0.018829861323595286,0.22413124053950662,26,32,78,79,3
0.00013129517913642016,0.0012766642442312375,0.01785706975826158,0.21924110194058272,30,36,78,77,3
0.00014144950574126916,0.0012602138081258868,0.01887744937183161,0.21295745049687642,32,36,77,72,3
0.00013830475418424827,0.0013313460140618233,0.018202347749575225,0.20604301008053702,30,32,79,65,3
0.00013941313590398995,0.0013712782709849889,0.01835422954291739,0.20254079925922472,40,32,72,63,3
0.00013723879233261171,0.0014709781863831597,0.018978707523343182,0.1907583794341943,36,30,74,68,3
0.00012254650742403572,0.0013391649964446522,0.016833998025783607,0.18456706789367547,34,32,73,70,3
0.00012730320098578823,0.0012497323864414237,0.016578887831313217,0.17626950178224993,34,30,70,73,3
0.0001199059227531846,0.0012374584115669213,0.015767958871578912,0.18420267274202615,32,34,70,75,3
0.00011651988056570556,0.0011714217904728447,0.015239426256268097,0.17846399981520333,34,36,70,69,3
0.00012172076081755008,0.0012062669052392162,0.015838928234213318,0.17414832136024547,34,36,75,64,3
0.0001280420768682147,0.0011194402268109994,0.01630718995973749,0.16287026044683142,30,32,75,64,3
0.0001189481005586142,0.0010193486945978146,0.017295345060376305,0.143984024429516,28,28,78,64,3
0.00012545012372546676,0.0009636465122010633,0.01727799195743399,0.13939290472314966,26,28,79,66,3
0.00013313803618174614,0.0008125665256814505,0.015803330248563327,0.12136920795386717,24,30,77,79,3
0.00012491149462074498,0.0008836505851893764,0.015370042675442572,0.134498004386507,34,30,72,75,3
0.00012319288751487019,0.000874187938246315,0.01560100225385366,0.13385790876884257,24,34,70,78,3
0.00010882164637731855,0.0009106906274198856,0.014779668353910456,0.13786355227469904,30,40,70,74,3
0.000114626597273195,0.0009243965267243061,0.014996097773019398,0.15062423624752364,32,34,73,75,3
0.00011501550297214632,0.0009508620136407476,0.015028588016243082,0.15809402455643076,34,40,77,75,3
0.00011298577754049495,0.0010090012521963847,0.014863945477515335,0.1665859109020451,32,30,80,77,3
0.00011995338400887432,0.0009633282473337839,0.01561082099699609,0.1709122404298467,28,34,76,79,3
0.00014070380815860755,0.0010521754683711377,0.018709084036957698,0.16046910798480707,28,30,80,74,3
0.00013033310532619658,0.0009564629751268818,0.019321846343314825,0.15781784161171153,32,34,77,73,3
0.00014178701037475167,0.0009681374846828339,0.019491593740239507,0.14911207383834008,30,36,77,73,3
9.222368329302795e-05,0.000271527700497974,0.006541371617161232,0.02828489327481024,22,16,58,51,4
8.124413678927314e-05,0.0003304179477039317,0.006486646484427715,0.03636471589182074,19,18,62,53,4
9.523864149693019e-05,0.0005040671132759768,0.006974289041642763,0.043191533792108376,16,16,58,49,4
8.898293698717632e-05,0.000487372944940263,0.006960764076169668,0.04442076548246036,23,14,57,53,4
8.487894536795695e-05,0.00040646093803349407,0.0068768025326112845,0.03320308238046731,22,10,64,58,4
8.537193228141402e-05,0.0003169179910813635,0.006878184837993047,0.02377268280353494,19,10,59,59,4
8.988311238668091e-05,0.0001685014736739599,0.007059123466782953,0.018458582950592335,20,20,64,65,4
8.870397252977806e-05,0.00019492484718961346,0.007120168405835547,0.02054833101685171,17,24,69,64,4
8.860094485866911e-05,0.00019242597426926675,0.006960805332248778,0.020227202837775828,20,22,67,55,4
9.294532861506777e-05,0.00017240605125694577,0.007134916148552228,0.01911471547499957,21,20,61,58,4
8.451980584227069e-05,0.00015754308808613583,0.006945910902715115,0.01721194335567506,24,20,67,63,4
8.860803399246786e-05,0.00012204627648701224,0.006729677646426405,0.013368419355684615,19,22,63,69,4
8.968392295436428e-05,0.00012427281833725094,0.006969538501459783,0.012948314325896972,26,24,63,61,4
8.841251915402972e-05,0.00010141043488901215,0.006555522591424993,0.01140934009135641,17,22,65,64,4
9.005567495778414e-05,9.686811982400241e-05,0.006552615164263216,0.012182637194614312,24,24,57,66,4
9.41607994091389e-05,0.00010177342516972025,0.0065490003097716755,0.011588449617023114,23,30,55,65,4
8.979989203174506e-05,9.644513363454046e-05,0.006187804219456578,0.011894613877406757,24,24,59,66,4
9.076981597747974e-05,9.54018520292809e-05,0.006335771572903668,0.010948600583675304,24,26,61,68,4
0.00015000350563789376,0.00026439565466830617,0.009101846467807597,0.020026762159226566,18,10,48,60,4
0.0019716860615201877,0.00041762182632187217,0.1118856802825571,0.03266995240324008,4,14,60,62,4
0.0020817288659996194,0.000449536821395207,0.11405039664215437,0.035932764301170865,4,12,64,53,4
0.0020701031082338596,0.0003822357101741232,0.11114696580349759,0.03455135427119923,4,12,60,56,4
0.0019525142427882416,0.000318164506145752,0.10688895363045953,0.02991936102847164,3,13,54,53,4
0.00011334895130642801,0.0001669734989030359,0.008458266181862047,0.020578730275496497,18,28,68,68,4
0.00010934487369069801,0.00015688305978756205,0.008059506683733775,0.02141307463732173,22,32,63,65,4
0.00011239908344905087,0.00016976716007768264,0.008142978212652821,0.021503038794148905,26,36,60,67,4
0.00011757318024503677,0.00018672106668313315,0.00833557070154393,0.024842675920098846,24,30,58,68,4
0.00011565225697946016,0.0001460680762473649,0.008206529730740483,0.020308787565735145,22,30,66,68,4
0.00011782401088246149,0.0001292214302055745,0.007986332399068267,0.01696397586717348,24,24,65,65,4
0.0001192889946984564,9.392541633964015e-05,0.007900491488150765,0.014135075227535727,28,26,63,79,4
0.00011238104728061914,4.9055997639390665e-05,0.00786434685171776,0.006569408359711356,24,26,65,83,4
0.00011599812766581559,5.502071103530515e-05,0.00790265737727735,0.006330673734017228,16,24,63,87,4
0.00010979203499926973,5.757271838104177e-05,0.007813799623271129,0.006720651720690359,22,24,62,89,4
0.00011418384191427594,4.5840918306884326e-05,0.007757240480261294,0.006615955807640751,22,30,61,78,4
0.00011127644571258652,5.141354630954745e-05,0.007918691319621127,0.007456761662792836,34,28,57,77,4
0.0001108910798495932,5.452822172759195e-05,0.008047550751470262,0.007261245062577796,28,26,59,79,4
0.00011269295111406945,4.094712392115999e-05,0.007860838660531397,0.006087533507421136,26,32,59,81,4
0.00010954381794367256,4.773472097666556e-05,0.0077314528580826,0.006569490593918315,32,34,61,77,4
0.00010926183192772146,4.6921866216144284e-05,0.0077156611410980494,0.006133847154301793,28,28,61,82,4
0.00010690007149227607,4.582338224853627e-05,0.007675155811534917,0.0062536029174677064,32,30,58,73,4
0.00010739517031432876,5.2097778085791875e-05,0.00783890081269673,0.006673156610473908,26,30,60,74,4
0.00010414268173351203,4.718903215971499e-05,0.007864088137863807,0.006433123191130301,34,30,62,76,4
0.00010598239894533205,5.060152174885097e-05,0.007841479313505728,0.006146275059124948,24,32,60,79,4
0.00010092877329973934,5.153661914085364e-05,0.008022701714885137,0.00670886924263272,28,26,58,80,4
0.00010296754106672818,5.170965884884715e-05,0.007967695704162364,0.00649069926817565,30,26,62,77,4
9.997404851908231e-05,5.175787242991201e-05,0.007940373599965815,0.006589795750591093,32,20,62,73,4
9.967223594018868e-05,4.4534877948871064e-05,0.007742709334652577,0.006239583522095938,20,22,60,79,4
9.718623150204636e-05,3.101872712783768e-05,0.007607443527568522,0.004835292936136924,27,34,60,75,4
9.534342838573616e-05,4.254788684617045e-05,0.007517728480648461,0.006047659325294217,24,28,58,71,4
0.0002784676747426778,0.0010492936675064184,0.039915115942944245,0.15699551930955868,24,28,77,76,0
0.0003147207164737451,0.0009648252840250834,0.04121775161425698,0.1575702429864813,22,26,79,84,0
0.000319774919708632,0.0010350179119973258,0.045213202450053766,0.1638681857162634,26,30,76,78,0
0.0003296265853375176,0.0009999003754476406,0.04886436221907008,0.16793365547430475,26,32,74,81,0
0.0003496632574131509,0.0010562168907478839,0.049243655677181745,0.16528594812191602,24,28,76,77,0
0.0003544816783296581,0.0011874930733425364,0.04502382377785576,0.1789359393737991,28,32,75,72,0
0.0003496953673477453,0.0012876537229009144,0.04571388187636976,0.1837839603543617,30,30,77,67,0
0.0003146640169189605,0.001187342477992795,0.04274246496321978,0.17857453337963156,26,32,74,67,0
0.00032547518153090027,0.0011100707805093498,0.04664894957868145,0.17508512992082653,24,34,73,68,0
0.00039897281571983666,0.0012142525001222612,0.051195100810848757,0.174954915504116,20,32,67,70,0
0.000401042415170094,0.0012037926718077414,0.05274204193086463,0.18124045885405196,26,34,67,71,0
0.0004103044140429916,0.0012415173730132498,0.05107683010794411,0.1897528674590712,22,30,70,78,0
0.00035885097753613106,0.0011933649018911906,0.04729713067846535,0.18734405137080623,25,34,70,75,0
0.00031720583296267646,0.0011644014577625096,0.046522698062701914,0.17803722952842443,24,28,75,71,0
0.0003753361718720119,0.000972538007487068,0.04939340841126623,0.15501370139338996,30,36,72,70,0
0.0003957986808242152,0.0010016167633230151,0.05442827386420901,0.13926431002342948,32,34,71,68,0
0.00040054912092046016,0.0009953474716709696,0.05447602517656943,0.14588044464694377,34,28,74,69,0
0.0004042898051954982,0.0008887141346717453,0.05639393366850126,0.13625167433630903,36,40,72,73,0
0.0003061673603285445,0.0008735301954128168,0.04381276871104883,0.13452126726798497,38,34,74,73,0
0.000301831902443814,0.0009080547690774075,0.043606030875847294,0.1311062267288059,32,28,78,77,0
0.0002824548414830306,0.0008430902427206574,0.04182066591669024,0.12468249928876375,30,32,73,81,0
0.0002681681874272443,0.0008705037262694707,0.04026295694372376,0.1151992069676514,24,30,80,79,0
0.0002910618449477127,0.0009255825065991536,0.04190803951620615,0.12568683431840474,28,28,81,75,0
0.0002559074144092223,0.000904575263394994,0.03707979388271538,0.11919228355169258,30,28,74,75,0
0.00011337422364498011,0.0021905390881531957,0.01372714423634943,0.28388967035098256,20,34,74,51,1
0.00026079557368513496,0.0022554497370298725,0.029422132840276595,0.28946947800064987,28,36,71,55,1
0.0004786518762362494,0.0027721910850907875,0.05081599638503921,0.32789142497192414,30,34,67,55,1
0.0004695419679873038,0.002608065201197316,0.05596478586948611,0.3353641785294767,24,34,70,62,1
0.0004751824553822552,0.0020586521022782018,0.060627331547192985,0.2835184890324458,28,30,67,61,1
0.00045765511557221554,0.002607279939998401,0.05814067189906441,0.3691117315540203,32,28,64,58,1
0.0004173206494747733,0.0026235163979213194,0.04985198404172476,0.38346237495470503,32,38,62,58,1
0.00038623196228598994,0.0025098135618734246,0.053673611764874715,0.3735798315588108,34,32,63,61,1
0.00036820408265237617,0.002620510246702312,0.05171657865613543,0.39683831963971455,34,34,63,61,1
0.0003460382331362473,0.0023295979350022957,0.0498086524193525,0.3466895839163085,38,30,69,61,1
0.0003855003552395931,0.0021314593766108758,0.04687910564843502,0.32003740286161136,36,38,67,64,1
0.0003649786312719776,0.0020632016400847133,0.04564066589391075,0.31206774156782324,38,40,74,67,1
0.0003747249597963485,0.0020508569958139693,0.04591228041233886,0.288765577605793,32,40,74,65,1
0.0003516661802330691,0.001955602392496763,0.04369946345165321,0.2937124498661711,32,40,77,69,1
0.0002985083502863395,0.0020103407779527346,0.03843492911698482,0.3052430710666725,34,28,77,63,1
0.0002674228039993619,0.002038125137432482,0.032885070556057404,0.3287622524258427,34,34,82,61,1
0.00024293276942388256,0.0023147204568047136,0.03221893566578616,0.37010732990571577,28,36,82,60,1
0.00021089879061253692,0.002476663761585745,0.028474798423236903,0.38525292458785276,32,34,84,59,1
0.00022680388456546206,0.0025026236161048484,0.029325097063159514,0.3901887919998482,28,32,80,59,1
0.00023709863114434383,0.0022551845702871195,0.030553331320458867,0.3406109030951637,32,26,82,58,1
0.00021625501052311777,0.002175348825867837,0.028508742074166427,0.2896080486921129,28,32,82,63,1
0.00022671813754531085,0.001853085186850022,0.028465617445888502,0.254668192035979,24,30,77,67,1
0.00024366071822513047,0.001694519211597283,0.028125828532155298,0.22228181461521285,20,28,83,66,1
0.00022634052193873627,0.0018104765093692736,0.02823133411439379,0.22642864044361777,26,36,78,65,1
0.0015064657384931896,0.00026882935024768133,0.24634781124613137,0.05487395446609937,34,10,89,91,2
0.001402633104032931,0.0002562381350736554,0.2319608891544147,0.053607439749809915,24,4,92,92,2
0.0011920761798254937,0.0002771641586920064,0.20968213454195023,0.0544778129334048,26,8,83,91,2
0.0011668643375471915,0.0002952642633922915,0.22106680361686282,0.05459538399086725,32,12,90,89,2
0.0013020484588069817,0.0002717252945407512,0.22892364563666964,0.05271010443769418,38,26,88,93,2
0.001268224659915013,0.0002671570017595393,0.23287811157985347,0.05022548740471953,40,30,89,87,2
0.0012787442886311483,0.00025785961366147075,0.24167288841556603,0.05073403804487891,46,42,95,88,2
0.001451449336376311,0.0002607993668511898,0.26181576663910744,0.05313539123614396,40,44,85,88,2
0.0013648383132915276,0.0002785626939212911,0.2580415503427724,0.05461946760851125,38,42,84,85,2
0.0012955377141178925,0.00029127716246232294,0.2559960361519342,0.057207909040174074,38,44,90,88,2
0.0015117260159306714,0.0003023437946585575,0.2742159818936739,0.05762212215884441,40,50,89,90,2
0.0014092350633491818,0.0002745811880817315,0.24673772956804355,0.05212636999931085,38,48,91,93,2
0.001308653741924651,0.00027468178259859566,0.24497088808637793,0.04960323007434547,48,48,97,94,2
0.001391522738925414,0.00024295324335388226,0.24192649542700714,0.04647094147049527,44,40,92,97,2
0.0010927589238413358,0.00022712932219408555,0.2151041814332906,0.044576238916336275,40,40,95,95,2
0.0010495176591906875,0.00022683121062590068,0.20076366120861308,0.04283845175574317,34,36,93,95,2
0.0010449689664551076,0.00019466545101877876,0.19158828180620951,0.04093569966000302,48,48,89,95,2
0.0011204867404520187,0.0002031782063108029,0.18549872145776966,0.041756827654010814,46,42,86,92,2
0.0010739633790791835,0.00022904723220765742,0.1960775632367338,0.04485167360959795,44,56,89,93,2
0.0010758873716278977,0.0002190558153483547,0.20685785968365503,0.044589495122346896,40,54,89,86,2
0.0010349559066441805,0.00023110363424508722,0.20089788878820597,0.04661183710259991,42,56,87,87,2
0.0011854231080976458,0.00022169379420924028,0.1943884512068079,0.04463547163146805,44,58,85,83,2
0.0010306935788453064,0.00019549655065497065,0.18122931506983642,0.037742144796963584,40,46,87,81,2
0.0010191455420329682,0.00020647742199616896,0.1672345959897493,0.040931716252074056,38,36,87,88,2
0.0001711103411872248,0.0020783788689440847,0.020299310119897752,0.28700448411153945,24,28,74,80,3
0.00017418924334876716,0.0024497852757428516,0.02030460218485603,0.34346821922390036,28,28,77,74,3
0.00015311738648385745,0.0026077543063666806,0.019682486443836987,0.34579858564680066,31,30,75,72,3
0.00015962862842974806,0.002686460226287104,0.0196012288958661,0.33591679671299,36,24,75,75,3
0.00015270149754723967,0.0022698523137184273,0.019463841670515045,0.3360789670547472,35,24,69,68,3
0.00013732351552559884,0.0020489248830521563,0.01883258126811581,0.2819937132378901,32,26,69,73,3
0.00014965028667138097,0.0018818731994105179,0.018359839656828865,0.2744465255426221,33,20,68,68,3
0.00015138740437582184,0.001798833724463783,0.018028242653769077,0.24518338688279112,34,26,80,72,3
0.00014200027182834055,0.0016009737831116206,0.017922180131645257,0.22842756265281056,33,28,84,70,3
0.00015027722145006964,0.0017028835508989051,0.020414781673722567,0.23318278859231079,30,26,84,71,3
0.0001545114373000284,0.0018751634349620059,0.023384381143630863,0.2735900696852199,31,30,81,73,3
0.0001684493292702917,0.0021195674033955177,0.023391161924360884,0.31309241906718616,30,22,74,66,3
0.00016611467552585805,0.002070283112365895,0.024736121468257325,0.3181193099928681,29,28,68,71,3
0.00015557289424468333,0.0020515042998224837,0.02247125668226763,0.30776091458248,34,28,72,73,3
0.00015866969754817898,0.0018320824418192017,0.02029196374734492,0.2582871909715828,36,28,66,70,3
0.0001595845792289747,0.001630273385836615,0.01942522585660258,0.20517901746773398,44,28,67,68,3
0.00015252420187174503,0.0013709651280401666,0.016590901995599254,0.18066676392255543,38,32,70,68,3
0.0001524352755000614,0.0013867417251074404,0.01571089867987042,0.2003614092172953,44,30,79,68,3
0.00014145296793416606,0.0013342033842442236,0.014523254992211635,0.20971920350185333,37,28,78,67,3
0.00014949382639831916,0.0014080362720757366,0.014359112984454686,0.22973679465093527,32,30,73,73,3
0.00011470940953576049,0.001754818310641151,0.014472254270273398,0.2571591497298344,36,22,70,68,3
0.00011258081800593615,0.0016222001249086633,0.014454749455373886,0.2410070491518063,30,24,74,70,3
0.00011480627893136405,0.0015264410818825677,0.015437611059911918,0.21271108398071417,40,30,76,66,3
0.00011852708772066291,0.0015613765773606764,0.015006802943670235,0.2033262296683715,38,32,76,57,3
6.125852020005499e-05,0.0001677574646678776,0.005360399560684233,0.019643827435922644,24,18,76,78,4
5.916634458487065e-05,0.00012701951281306753,0.005244168242911485,0.013834391764128501,28,20,77,75,4
6.317962649940208e-05,0.00013375952206586274,0.0050742812546715164,0.014288958826920677,24,24,71,79,4
5.994843821018006e-05,0.0001575591506502175,0.005472896716466913,0.017044445100907985,22,20,71,66,4
6.98497751185489e-05,0.00015672112584615809,0.0058562803384661945,0.016023325689209354,20,18,76,63,4
6.88204951609884e-05,0.00015815588512676455,0.005809165293922404,0.016299194783448424,24,14,72,69,4
6.847354942476124e-05,0.00016395979851654364,0.006010562123643938,0.017007324217185316,20,16,66,67,4
7.019457178856653e-05,0.00010803115751852952,0.006098939108382589,0.012385591363533621,18,22,64,73,4
6.690437277189489e-05,0.0001202700030541323,0.005376764696450962,0.01233670483165826,24,20,61,80,4
6.405850050711771e-05,0.00011470041882376486,0.005195231698180738,0.011576072930877958,24,22,68,81,4
0.0002072834615962867,0.0005946389504155836,0.013941595142807194,0.04039204793893155,26,26,63,80,4
0.0002401208333223453,0.0007130989559279016,0.015403087653652303,0.05680182958136988,24,24,55,66,4
0.0009091455376383431,0.0009559475655784608,0.0526127247051509,0.07288061259856495,26,18,88,57,4
0.000935304660694265,0.0010372577601166404,0.05197870956220161,0.08536463823218368,20,18,76,48,4
0.0008058210471676741,0.000661196440437641,0.04420523032502545,0.06610525403822771,22,20,78,52,4
9.30974679113915e-05,0.0004350763919809487,0.00695619649277748,0.04628343193213438,24,14,71,63,4
8.659194921443702e-05,0.0003574789108308301,0.0067598567532679964,0.04022812813177463,20,16,68,61,4
9.506217381326346e-05,0.0002565132388231138,0.006915990252586671,0.028415627554135188,22,16,71,61,4
8.503909260671357e-05,0.00020194043389707466,0.006505630066908267,0.022408181324435287,24,18,62,62,4
8.748621887426223e-05,0.0001580005325918024,0.006429240356656112,0.016570134871777054,26,16,64,66,4
8.33222805339262e-05,0.0001514312874623064,0.006297513712852651,0.014164153767637643,30,20,58,63,4
8.331672332994982e-05,0.0001618906730721974,0.006482429969953834,0.014103483838687675,32,16,62,59,4
8.555952265746231e-05,0.00017986417066264562,0.00654904994172773,0.015701673973798482,28,20,58,57,4
8.873665641680223e-05,0.0001558388109726095,0.0065055024730210275,0.015676206188288414,26,22,53,50,4
