f1ch1,f1ch2,f2ch1,f2ch2,f3ch1,f3ch2,f4ch1,f4ch2,Category
0.00032110085137111813,0.001156571864763811,0.0313441930108222,0.0724006225678104,22,20,51,36,0
0.00039528340261341783,0.0011649468929130294,0.04418348207503141,0.07244908771634943,22,20,54,34,0
0.0004585487227550705,0.0011949398164256885,0.05372760196207878,0.07436973443940513,18,20,58,34,0
0.00048065434754489424,0.0013855447026442167,0.05789370692692564,0.08226247157207522,24,19,57,32,0
0.0005292217571732674,0.0016634147031446096,0.07304340940903553,0.09630947339303329,26,14,65,30,0
0.0005826776638060546,0.001882560572479901,0.07899694083641753,0.10372601024414675,26,16,62,28,0
0.000747796875979566,0.0018391049740390775,0.093151257290166,0.10645718178895383,22,16,66,30,0
0.000784602972536801,0.001739159056307328,0.10730214237581884,0.10648359256649276,32,19,68,28,0
0.0007988380048937289,0.0016363085874742168,0.11123147954148861,0.10067140336049127,28,20,69,28,0
0.0008886974543445048,0.0017675573752236292,0.1250448815504531,0.10148457238583547,32,20,69,24,0
0.0008988106639804567,0.0016375841652856752,0.11942780124845034,0.10241389606172457,34,20,68,28,0
0.0007755762090118109,0.001621020026506066,0.1150372616981667,0.10025600830412565,34,21,67,30,0
0.0007393252893045188,0.0016080140728879872,0.10650325301682007,0.10021776127404619,36,20,70,30,0
0.0006843004530078878,0.0016484739744700052,0.09229798882344481,0.10171720489288397,36,20,71,28,0
0.0006297948667722661,0.001648849506757606,0.08753003635646099,0.1023839143798415,30,20,74,32,0
0.000700701655908718,0.001604495266084534,0.09453916689236691,0.10069244010860044,32,20,72,34,0
0.000716002722953149,0.001608063901680829,0.09421178443091441,0.10077509362678391,32,20,70,26,0
0.0006551689106390569,0.0016119978792402412,0.09260749623858422,0.10068743553601621,34,20,71,34,0
0.0006616030885139775,0.0016146469568403665,0.08780165242223133,0.10145795615653898,32,20,74,32,0
0.0006031643473157649,0.0016145533972214937,0.07900527834829024,0.10114667636702794,32,20,75,32,0
0.0005640748596523229,0.0016227072022849704,0.06931669810313905,0.10249535578820868,26,20,72,36,0
0.0005527252544823071,0.0016278401691621788,0.07317584605794043,0.10254310021528436,28,20,72,34,0
0.0005950860461351145,0.0016388668679551798,0.08187554284342541,0.10345460779829566,26,20,70,34,0
0.0006310037229113219,0.0016392417245520595,0.08517981477160975,0.10318555350026377,28,20,65,36,0
0.0007045117809234416,0.0016475083324597568,0.09245820247094677,0.10413156048819866,32,20,61,30,0
0.0007117193065921608,0.001646522153100594,0.08749202648991736,0.10387321918206804,32,20,63,36,0
0.000676510160846839,0.0016486854132592016,0.07970057952831122,0.10456806712650472,30,20,61,32,0
0.0007060077863913112,0.001649052316101197,0.08075441448198174,0.1039106521458038,24,20,56,34,0
0.0006776291783436008,0.0016499472238050616,0.08223974138685453,0.10481748664072627,30,20,60,30,0
0.0006554068368755448,0.0016427335672340071,0.08151907214319169,0.1040904930232538,38,20,60,32,0
0.0006581086927381245,0.0016534073916447906,0.08308732170715355,0.10532668188114414,32,20,67,30,0
0.0007031304304640811,0.00165439599895538,0.08671722467558929,0.10527121322225065,40,20,68,34,0
0.0006625304912902265,0.0016720597984662949,0.08248153960970418,0.1067388496242778,30,20,65,32,0
0.0007001342549859982,0.0016741240809198395,0.08115059778392059,0.10636211459560083,34,20,63,38,0
0.0006822267590734561,0.0016875664154158312,0.07992937235060957,0.10750000950134407,32,20,63,32,0
0.0006410133539399645,0.001697284349792604,0.07459711544530391,0.10749923079732313,30,20,64,36,0
0.0006079612211164211,0.0017217034552669758,0.07165175835267909,0.10951761510266617,22,20,63,28,0
0.0006561788122582897,0.0017248448057026685,0.07239605620848716,0.10943840058377469,22,20,64,36,0
0.0006739496090810479,0.0017472897317332438,0.07095310443301464,0.11132901006230587,24,20,66,30,0
0.0022186339342013814,0.010527080970782114,0.1469654851028999,0.5834821227204754,6,4,50,119,0
0.00231810025085779,0.01151952948591432,0.15141316278771896,0.6050135103369133,8,6,50,71,0
0.0022375323720714253,0.011464438074445254,0.1462895650726696,0.5935161409231872,8,4,56,62,0
0.0006204785497381293,0.0009485183718117066,0.08201361161631524,0.10419680322256081,30,24,66,72,0
0.0006461994273175123,0.0007630851350257675,0.09020475002399324,0.11012677936310618,26,30,68,76,0
0.0006375231368448593,0.000711975449239298,0.0847729921929289,0.10984644561818861,26,30,72,72,0
0.0006836882475426507,0.0007599356825484916,0.08995443527908042,0.11773577705579773,26,28,74,71,0
0.0006778808827811927,0.0006986000334001186,0.0854897023864602,0.10638365223217962,28,22,74,80,0
0.0006651032512905873,0.0006994455909382144,0.08477239666088336,0.10604614378746206,28,30,72,74,0
0.000901945541713023,0.00015673689515497612,0.07319955429870023,0.012667984543827827,16,20,38,42,1
0.0009387315227357667,0.00029249926161987945,0.08625136623819413,0.02661441678294575,16,12,48,45,1
0.0012717980159648928,0.000567116912144159,0.13292611053061082,0.0513680161026829,22,13,50,51,1
0.0017247971155651427,0.0009913368037265517,0.21694136192582833,0.08826265550910717,26,14,61,45,1
0.0022919429207235637,0.0010235802997335575,0.29189908441026396,0.11088079920657304,26,22,62,52,1
0.003116505318706028,0.0010191275143354816,0.39441256506561,0.11833577253463784,26,22,58,57,1
0.003699721929667112,0.0008743175797940335,0.47229176487789076,0.11118627427657285,34,20,52,61,1
0.0037768507669226864,0.000700667010077142,0.47683622290194466,0.09608941106923617,32,28,51,64,1
0.0036452515796888308,0.0006502548686556171,0.4570144546770557,0.08807048445215197,26,26,53,61,1
0.0030705920940484726,0.0006700724479081537,0.3975648345514741,0.08951163856664261,30,30,55,67,1
0.0031638797651370783,0.0006660033860822939,0.36501926418642133,0.09073484234455392,22,34,63,65,1
0.002585935899760583,0.0006764731623592131,0.34228392563309695,0.0905938754537961,26,26,68,63,1
0.002481347390399873,0.0007323544531749543,0.33539460591672554,0.10159134121080517,28,30,67,70,1
0.0024540817619052254,0.0007470051501135996,0.3509971805191307,0.10590717059374402,24,40,69,69,1
0.0023966254679926176,0.0007380693364763878,0.3429861949180627,0.10670061920462286,34,36,72,68,1
0.0022588119435062726,0.0007734992423687506,0.35166982729136953,0.11501714673198342,38,30,66,71,1
0.0023708356800576412,0.0007373870732794129,0.3762168133990708,0.11122670932909529,34,36,69,71,1
0.0022714952190827312,0.0007373584119185513,0.34978812634102496,0.10992444305658763,32,32,66,73,1
0.002128986342225683,0.0007725365795575993,0.33215551253223863,0.12073817752032448,36,36,64,68,1
0.002095270255841707,0.0007518920006310908,0.3082500609874746,0.10999521279539488,34,34,62,68,1
0.0019662554166599115,0.0007300943551432847,0.29169132045624946,0.10669641803662487,38,32,64,69,1
0.001938112926109754,0.0007198981305408714,0.2980645919581519,0.1041021340901359,38,38,65,63,1
0.0018718701482624033,0.0006828920861907405,0.2875479640453204,0.09349382846414314,40,36,65,66,1
0.002206919759336972,0.0006440017219510237,0.32253523132527256,0.09399137906193318,34,32,65,60,1
0.00184510659118781,0.0006814229894912623,0.28451751388757845,0.09851930666523988,30,34,70,62,1
0.0018489335571437292,0.0006064982997417644,0.27789851024545176,0.09004678279976022,32,34,64,67,1
0.00180271321914491,0.0006244147928581752,0.2671744302029315,0.08351719723027609,32,34,72,71,1
0.0016817428042006884,0.0005394500148104306,0.22236830783235056,0.07866379794179076,26,40,70,75,1
0.0013966480902838727,0.0005179977924306582,0.21206797050593276,0.07321887015077981,34,40,70,69,1
0.0012382338904948361,0.0005704724947499702,0.19765328694565648,0.07941342388349702,34,32,72,70,1
0.001139918844329407,0.0005972521153374414,0.182208419693718,0.08375138328154247,40,36,70,64,1
0.0013527744871809219,0.0006437697694185606,0.20326043552533418,0.08497246229870443,32,26,66,62,1
0.0016044587564190825,0.000615555513966705,0.22873076094510011,0.08595151355193438,28,28,64,56,1
0.0016963721239046355,0.000642253991896066,0.2312981687094495,0.08419413503602516,30,26,64,60,1
0.001760681887966708,0.0006362499944668197,0.24945599646299432,0.08530924361054545,30,32,65,65,1
0.0017663122067373398,0.0006681455265414716,0.253285461605125,0.08567886194407542,32,30,66,66,1
0.0014321634882759537,0.0005886964143797702,0.22136381739236963,0.08392898849296784,36,36,73,66,1
0.0013785164121749433,0.0005693509642378533,0.21526955826871866,0.08068805353015335,34,34,73,63,1
0.0012996747589291394,0.0006007141147101452,0.20644502289470712,0.0819752700757647,36,30,75,66,1
0.0013675669138986676,0.004037284924044759,0.1999199283462638,0.24249503652484924,34,4,69,62,1
0.0013643835895666004,0.003976075730574947,0.20233002128218328,0.22996828826960428,34,4,70,51,1
0.0014145345069988447,0.003884605676452986,0.1990762034882054,0.21742468333042037,32,4,66,52,1
0.0014537456533192411,0.0008207691816402776,0.1942491839882334,0.04674224022030265,22,18,65,23,1
0.0012712441717006445,0.0008632432064403615,0.18094004689821605,0.047216029895880654,32,18,66,29,1
0.0012425540285912948,0.0008209155417073643,0.1768041514568574,0.046602184512323466,26,18,66,25,1
0.0010793442318518395,0.0008178004831124522,0.16551992019168507,0.04454697805129341,34,16,69,27,1
0.0010272036417662172,0.0007850517925504275,0.16761529504882455,0.04352488564423173,34,16,71,27,1
0.0010476456110163012,0.0007549659257265584,0.17198164079789746,0.04107311108002701,34,18,70,33,1
0.0005165648710953469,0.008440468395589576,0.04045837569628657,0.32245732284501943,6,4,70,16,2
0.0012084180244142492,0.004813853309157079,0.06857506209660291,0.19043352176889522,6,4,71,21,2
0.0012682192547778285,0.0027615176800728563,0.07834415693041628,0.10482838584246287,4,12,72,29,2
0.0013298802623914392,0.0023367485417233966,0.08820962412959146,0.103352763927287,8,10,78,25,2
0.0009647787536945907,0.0021980856038409853,0.08048832654664412,0.09798161561617494,10,10,76,29,2
0.00039343052540508343,0.0014705688788227778,0.06142746290793857,0.07033621956466993,44,13,88,28,2
0.0003568727667899375,0.0014346192130585715,0.05808060144807917,0.07165363990905949,42,12,87,24,2
0.00033420094848084155,0.0011981007371029068,0.05514080912327372,0.06540051698953822,42,11,85,24,2
0.0003124599346629438,0.0010455753011229315,0.052081770581902255,0.06120559344482513,38,12,89,30,2
0.0003036956724166719,0.0010701886540237543,0.047942617138300156,0.0633514966216397,34,14,89,30,2
0.00024027005237064168,0.0012469997249406905,0.0437958538402303,0.06524252335936329,42,14,95,24,2
0.00024107249006953037,0.0011762470698359385,0.039633700524788935,0.06190400078117117,40,15,90,30,2
0.00023395072856675564,0.001169173607604311,0.03311065751827986,0.05950755547937585,34,10,85,32,2
0.0002264821094827943,0.0008010537653921027,0.02948073826422685,0.048182304841533574,36,15,87,38,2
0.00022375802894417218,0.000749063353455014,0.03161792349714739,0.0478891940035428,28,12,83,38,2
0.00020574599028548354,0.0008054473731281595,0.03146013973157291,0.04953504017184883,41,15,84,36,2
0.00024145967345378148,0.0008220068723801752,0.03517906658041908,0.04967498758624942,30,14,82,34,2
0.0002709927758141338,0.0008356258796270026,0.041602297717245884,0.04963598791491364,36,15,91,34,2
0.0002666625238436693,0.0007965178506669968,0.041842792439204884,0.048409086557515676,36,12,88,30,2
0.00029351680551660113,0.0007952624419670532,0.04531565409730847,0.048462142948333925,40,17,86,32,2
0.0002728063019988178,0.0008233932300664746,0.04322401261344099,0.04997363271363177,38,10,89,34,2
0.0003116130893957289,0.0008410079550707727,0.04381569290740991,0.049829046111266095,36,15,85,34,2
0.00029777250255004554,0.0008388954332318858,0.043890137535193136,0.052009636397255206,38,12,80,32,2
0.00030469258128546065,0.0009007767503697453,0.04310866189243284,0.052287093816314946,39,11,78,32,2
0.0002961444596645547,0.0009297353322648288,0.04371779457565757,0.05292851314762561,34,12,86,30,2
0.0002989394031360328,0.0009086262574455262,0.04066888648479253,0.05412748473410256,37,19,87,32,2
0.0003055743552687402,0.0009514715267561981,0.04112428575906856,0.05418054069766799,24,10,92,27,2
0.0003145479616498343,0.0009196363184221918,0.04159483186824657,0.05305321198378284,27,9,94,26,2
0.00030138118750779134,0.0009457455912927919,0.04085289604149009,0.0535006763309773,26,10,94,30,2
0.00031778696882790063,0.0009362655529055624,0.04094994974842205,0.05479956170867193,33,19,91,26,2
0.00030067944102343607,0.0009163038626634921,0.0402487613652902,0.05553419880608234,36,16,96,28,2
0.0003180188220707605,0.0009726408533622889,0.03681380909118049,0.055515979349775584,37,15,88,26,2
0.0002860568093807513,0.000932451465334656,0.03353951383695714,0.05508915470010234,38,12,82,28,2
0.0002784823291072215,0.0010098656308621986,0.029730991970489486,0.05622732944908746,33,11,76,32,2
0.0002531828256081431,0.0010504367536300033,0.025505820383969365,0.05991599148575842,28,12,72,32,2
0.0002607196681796469,0.0010765737172780696,0.02433052986772978,0.060300574878339515,25,11,68,26,2
0.0002454158906189459,0.0010761657691769596,0.02219601498901934,0.05981625662484801,30,8,68,28,2
0.00026344254115894146,0.0009760173650611656,0.021204103381520394,0.056943284243401816,29,17,70,34,2
0.00024264541615065952,0.0009465790595708211,0.02019525697962821,0.05504479140190951,22,10,68,28,2
0.0007515473782069843,0.017981696783185154,0.0449445984099448,1.0095271679650455,4,4,73,62,2
0.0007652091619254772,0.018118959253172095,0.047855977131230056,0.9915752447971767,6,4,63,66,2
0.0007770859561045623,0.017425374790905925,0.047849203451685446,0.9481056423674944,8,4,61,52,2
0.00018817572423425008,0.0007810024127425618,0.021742152547959102,0.041447009463642784,36,10,81,29,2
0.00020240928029886587,0.0007429793742114502,0.02272296666876387,0.04152484939951246,35,14,87,29,2
0.00019801712685714156,0.0007254452940836897,0.02398518445719147,0.04137210656931524,24,12,85,31,2
0.00021407065434953478,0.0007648979108123024,0.0291259394788349,0.04137846474969923,35,12,88,26,2
0.00022708608199838076,0.0007879732812279525,0.03328572629961095,0.04290760773419034,34,14,99,29,2
0.00026050275736975054,0.000813998841462005,0.037076193511688754,0.045884374426902214,43,12,99,30,2
0.0028641723331092562,0.00023084732776954532,0.5027441151487553,0.03440432550484922,46,36,81,72,3
0.0028118187694978957,0.00020966897220257803,0.4925417196268337,0.03370835155635066,48,34,76,75,3
0.002874237277176146,0.00018638858053812853,0.4965530154562569,0.029107115261467996,44,36,77,72,3
0.0028533295561230603,0.00017764508424839405,0.4638581396760634,0.025387493463781833,44,36,69,71,3
0.003038738230741181,0.00018444131446828041,0.41803801600778606,0.02516306877068901,36,28,70,80,3
0.0033866788650607545,0.00019855926206800722,0.4824664496125388,0.026262619700058828,32,28,71,79,3
0.0031256714403807835,0.00020278024769043794,0.4852307995799637,0.02821292019920979,40,32,71,81,3
0.0032519776370154552,0.0002334799179497918,0.49141356454905866,0.03213053494332937,42,38,72,81,3
0.003671651752686054,0.00021772388346621727,0.5549032831610137,0.03333128075129316,42,36,72,80,3
0.00330110971579145,0.000216556120113991,0.51611874495823,0.035082472717613014,38,40,73,78,3
0.0032842834627709026,0.00022962601637612555,0.5232916313069864,0.03575736336721407,38,34,74,73,3
0.0035048604007484534,0.00023448361083509706,0.5617452856204391,0.035689848221976725,40,32,74,75,3
0.003196961076241579,0.00023022119924009265,0.5189835957731797,0.036720086023057805,38,38,72,81,3
0.0035968073482947603,0.0002325246681548779,0.5690671992153331,0.03506191296754704,36,40,72,79,3
0.003387829911048157,0.00022432618722861383,0.5392719778306189,0.03346899057963794,34,42,74,78,3
0.003031112966926799,0.00023628326239319195,0.4869506965017101,0.03332457145661729,36,36,74,76,3
0.002902500938736186,0.00021870567826579978,0.482462862027425,0.031152537768419353,42,32,75,79,3
0.0024665502088524675,0.000213611448060588,0.4189569168964836,0.030389127358384234,48,26,78,87,3
0.002630153951594026,0.00025872962139021513,0.4598517711503721,0.029828991216478636,44,30,83,77,3
0.0029117684379047896,0.00023753122180399975,0.4984309710443906,0.028843532859962197,34,24,78,75,3
0.0031410022582896986,0.00023566310158154588,0.49750160161844376,0.029042578969423617,30,28,70,77,3
0.0030724233282237168,0.00022821254357567513,0.46944542638439124,0.029345396533563183,32,32,74,65,3
0.002949263794256359,0.0001930552899798577,0.44042133028465547,0.02871311165190408,36,36,70,73,3
0.002878372769306128,0.00017274523066591142,0.41134795149189873,0.026431577581706955,32,30,68,78,3
0.0027657290279301167,0.0001924905740153943,0.4348652481427603,0.027565413243578946,30,30,74,72,3
0.002709088351578319,0.00020749365213876118,0.44416019916674876,0.02768279166889622,34,24,73,70,3
0.0027181659317113797,0.00021863554170152243,0.4398291557750548,0.026669162655436323,38,26,68,67,3
0.0027936901090524525,0.00021861851674269596,0.4266675770389061,0.025825368384759583,38,31,67,63,3
0.0028898508483339268,0.00021310101524913176,0.3894503048564681,0.024877930188574884,32,26,65,74,3
0.002657828919526202,0.00022004166939361612,0.3845195000229223,0.02656870931969687,32,30,67,74,3
0.002452803267334958,0.0002045466904743097,0.3632488607317304,0.027023014092850295,34,28,70,67,3
0.0020362569842721535,0.00021859804494123291,0.33501922557963887,0.02703236939291546,32,36,71,68,3
0.0018283855044620902,0.00022500649702442206,0.309285785126941,0.02682631217632963,34,28,75,63,3
0.0018333552271576688,0.00020508916773764267,0.2752328644172362,0.023469916619287164,32,34,70,65,3
0.0018181138290132254,0.0001904421958659343,0.2869717426688596,0.023759363477188086,40,30,69,70,3
0.002112446758352201,0.00020868296110492312,0.3157677596369981,0.02475437021167112,36,26,67,72,3
0.0021731554617408196,0.00021524481988572492,0.3188323818949866,0.024554199497427053,46,36,72,71,3
0.002909653278914196,0.00020767765745802896,0.4339363037841452,0.02664706925840467,32,32,75,76,3
0.0028056019325904537,0.00020313165995748485,0.4354830877980784,0.024449404406927264,34,28,81,74,3
0.003090666087759977,0.0004678653633370755,0.4501148088936184,0.03981090420592423,30,12,78,71,3
0.003089005599801795,0.0005046981251742061,0.48031285442708976,0.04257098778488318,34,10,72,69,3
0.003020609699794214,0.0012366619563345816,0.4615734817720475,0.0592343705630005,34,6,67,47,3
0.00297111318711281,0.0010886683301865696,0.45618003220600817,0.05008443521430471,36,4,67,51,3
0.0026143887397724426,0.0010850585508526904,0.411786609052194,0.04836536535186149,36,4,74,51,3
0.0024641336137337685,0.0008563775826231129,0.3798089136579024,0.04315499154426918,32,2,75,53,3
0.0019027107672863592,0.00031102793988929217,0.29019396628670874,0.024823044509445603,30,19,81,60,3
0.002191456469615391,0.0002762588351557976,0.32954178869417206,0.024033325982624094,30,26,78,68,3
0.0023558229416557244,0.00022681024298054912,0.3710744954768901,0.025214114788955633,36,28,78,71,3
0.0003188184126490672,0.0001088418734296285,0.02363754999230933,0.007118586219327591,18,21,34,52,4
0.0003227694530854227,9.961038795815794e-05,0.022996284584729992,0.007109873827604321,18,16,42,50,4
0.0003134989417924858,9.323018245519939e-05,0.021945082179783342,0.006723849688826202,16,21,48,59,4
0.00032354607564303293,0.0001148770205299909,0.022811287896129864,0.007172633468364792,20,20,54,45,4
0.00031407845375584553,9.100102314793815e-05,0.02232414350579408,0.006331528904276643,20,21,38,50,4
0.0003175227381955574,0.00010533291637743764,0.021274247095784328,0.0072256586085106735,20,16,38,52,4
0.00030975381122092785,0.00010301243813396057,0.022072285285347017,0.007169409478425554,20,18,40,54,4
0.0003164256173567593,9.032005761329286e-05,0.02049584178192325,0.006657723598648205,20,18,32,56,4
0.00031913588555071534,9.124920914683672e-05,0.021418282259944372,0.00670041762218877,20,18,32,58,4
0.0003226369652903753,7.756475192666585e-05,0.021086295340425266,0.006051112288171787,20,18,28,56,4
0.0003257765884652412,8.269499607714652e-05,0.020961252694309453,0.006250977083426036,18,21,32,54,4
0.0003276754337860586,8.17953530982829e-05,0.02076847709404722,0.006202207174964379,20,18,32,62,4
0.00032521004739387613,8.37137923011933e-05,0.020299718296544412,0.006176852157604224,18,21,28,55,4
0.0003253064622170544,0.00018527463704390992,0.02039589718068011,0.010100825025674076,20,4,30,62,4
0.00032358591756387616,0.0006733456900543415,0.020650837140176584,0.03898751686450144,20,6,34,19,4
0.0003218525345059108,0.0009447766278357495,0.020479312575100772,0.056116024957117566,20,12,32,21,4
0.0003216717008657673,0.0010223457498427192,0.02076829325343747,0.061010969070694206,18,18,34,21,4
0.00032093686826362475,0.0008971076595878388,0.02049371083719292,0.05827549813142859,20,20,34,24,4
0.00032090494367250906,0.0009071007902668698,0.02037632345407689,0.0589577093134895,20,20,38,24,4
0.0003204899978194354,0.0008945979744301364,0.020156465453336582,0.05828066619467268,20,20,32,28,4
0.00031957531786766383,0.000901834903629519,0.020387022445968284,0.05877033539591976,20,20,30,24,4
0.00031668974070114104,0.000891936298215001,0.020259164583566004,0.05814406072318421,20,20,38,28,4
0.0003163283330020084,0.0009039606317138426,0.020241155964836825,0.058775322134379665,20,20,32,24,4
0.0003156515950885691,0.0008945718518702016,0.019941759059867187,0.058267187657807286,20,20,36,28,4
0.0003155632414343098,0.0009053888156808155,0.02003670253059536,0.058931267003146555,20,20,34,22,4
0.00031760355182542776,0.003846453061056861,0.019879426935082118,0.17995721851094432,20,4,26,21,4
0.0003173735162808982,0.004197592111006527,0.020132871502161205,0.1930193755017518,20,4,26,19,4
0.0006461669123135849,0.005671235130160801,0.04120262786412061,0.27151437350103147,12,8,30,23,4
0.0012444967874597798,0.0056000028821270136,0.0799718275610895,0.2701120119075495,10,6,59,35,4
0.001413964805792733,0.0023386728521291437,0.09029146395929451,0.12499215997793697,12,6,38,74,4
0.0012684479556584257,0.0003935016010953057,0.08008900104834529,0.021590728281808438,12,4,29,54,4
0.001028905811027033,0.0003759623481035324,0.06777612494912912,0.02085912743240644,7,4,30,59,4
0.00044296110557112185,6.652153629279584e-05,0.027873445698864237,0.005540579423384621,18,20,33,62,4
0.0004372833333912939,6.908765989747003e-05,0.02819992298439562,0.005622064335340876,16,24,42,62,4
0.000402157090504427,6.299922844008919e-05,0.026952429651886343,0.0056221008721230705,20,20,42,63,4
0.0004376763686530939,6.40544708840901e-05,0.028327899727619957,0.005421643740584518,18,22,41,64,4
0.0004091269548081977,6.458013635138473e-05,0.028335826941367666,0.005420800172107083,20,22,38,60,4
0.0004322750564765036,6.655586824279995e-05,0.028220158400927887,0.0054023663592045,18,24,39,58,4
0.00041817523300775644,6.74070125624619e-05,0.028827076139962486,0.005317131139478646,18,20,40,60,4
0.00043269660938859215,6.965508482359233e-05,0.029595882511243853,0.005509026024504869,20,20,33,64,4
0.00042431392258255267,6.822176388577299e-05,0.029227431313474703,0.005443352133966333,22,20,35,63,4
0.00042847312799771,6.522674534485027e-05,0.02826764836733269,0.005252336776395447,20,20,37,68,4
0.00041781234333047466,6.684007780062748e-05,0.0290775825671283,0.005240479127855483,20,20,38,66,4
0.0004085557497528656,6.768377525802588e-05,0.02788322920333269,0.005286957148973638,20,22,39,66,4
0.0003947819921408854,6.78197432879272e-05,0.027318589437203254,0.005210288271819943,18,20,40,64,4
0.00042138682305550086,7.190803302591594e-05,0.027125082113172095,0.00605483034960612,22,22,43,67,4
0.0004018018201519583,7.494236968944648e-05,0.026419718485528515,0.006608273659785362,16,26,42,76,4
0.00043267936479112515,7.542147886690207e-05,0.02718230416592922,0.006738529547174935,16,26,43,72,4
0.0005980549067120229,0.0002853159359903863,0.067737902683639,0.04074981324090977,34,26,67,84,0
0.0006151296662598591,0.0002553032567148413,0.07428589587930817,0.035381918480239506,28,24,67,80,0
0.0005363768037929918,0.0002721388173032948,0.07178770119133147,0.03913616392011866,32,28,73,77,0
0.0005324658006007122,0.0002815913485426548,0.07181094786873347,0.04131800938394788,34,22,68,77,0
0.0005760820216144159,0.00029952700370400206,0.07384032973904918,0.04514064929064118,30,22,64,67,0
0.0005474581263046338,0.0003815148152248749,0.06605862987332711,0.06349841512481158,32,30,64,77,0
0.0005193516760975236,0.00034866337474539377,0.061295357576657244,0.05820275049988826,28,30,58,74,0
0.0005101534374675797,0.00035975790834625904,0.06011034720674001,0.05884012807366414,26,26,60,73,0
0.0005173378547287434,0.0003562820589020544,0.05854050909760598,0.05481072366006087,30,24,66,77,0
0.001000266797908584,0.0012649579839505325,0.08978688602153848,0.08836413315770175,22,4,53,66,0
0.001162348483680702,0.0013549727975831225,0.10580218249928718,0.09716730539881582,20,6,54,66,0
0.0011949672308603698,0.0013570019086928448,0.11411851743487231,0.10424700879696401,24,6,56,70,0
0.0008321297416298692,0.0003831677156454787,0.11309622737061585,0.060030745090234365,26,30,67,77,0
0.0007243944845754856,0.0003655265296521099,0.10458813283463031,0.05583197744730949,26,30,74,75,0
0.0006626442843340958,0.0003877824670889133,0.09923664980555666,0.05761890680566371,28,32,77,73,0
0.0006532948833094123,0.00040582724735387034,0.09742739152133074,0.05505104427704753,28,26,74,73,0
0.000584917380061382,0.0004097321784377092,0.08767083705775847,0.061526585145171224,26,34,75,71,0
0.0006691865595404978,0.0004424029296684208,0.09812132022336338,0.06733073828725,24,36,77,67,0
0.0007551681369705535,0.0004175138057589558,0.10969845097719547,0.06490483061109764,22,36,71,73,0
0.0008183038762192323,0.0004571927247169951,0.11474757357244478,0.06880347774476066,22,34,73,76,0
0.0010911961415322562,0.0005746069938873089,0.1493978953063803,0.07743395555859851,24,28,67,84,0
0.001153818917309904,0.0006560505654791952,0.15889677471653804,0.08383689346935014,28,26,69,85,0
0.001166575705237798,0.0006241160856449153,0.16538493920062577,0.08736802046624244,32,28,66,84,0
0.0011144860113575703,0.0006697058104541884,0.16816525155728174,0.08731683485876653,34,26,69,82,0
0.0010433170147292944,0.000552244338507129,0.15171733826527284,0.08575936733926144,30,36,80,82,0
0.0009803090542208728,0.0004907808311320756,0.14000769093839957,0.07652144182471046,32,28,74,83,0
0.0010453439721427574,0.0005723997729921546,0.1499166745334047,0.0826572734163304,30,26,74,78,0
0.001016817153189012,0.0006017477996380425,0.13789299031818583,0.08902989571830613,30,28,68,74,0
0.0010852294831441742,0.0005951331652940636,0.14435079226264744,0.08583779691356785,22,30,68,73,0
0.0010912464931935825,0.0005933141151223907,0.15453131886084875,0.08761953020361918,28,26,71,75,0
0.0008844051179022478,0.000613729941004977,0.1335048920714527,0.08088459042199601,22,28,73,74,0
0.0008384380708155596,0.00048363575123236456,0.13071197402617973,0.06894051364698098,22,30,74,82,0
0.0008438170627022333,0.0004957429419084692,0.11807370491552067,0.07054957581160382,30,28,74,79,0
0.0008127865602952848,0.00045135257198748176,0.11243828324184514,0.07010644155577826,24,30,78,72,0
0.0007899211073052419,0.0004114807461876058,0.11769073617728298,0.06570786518134623,30,34,74,73,0
0.0008264475174200512,0.00041382145665910396,0.12413320939413112,0.06792802924265239,32,28,69,78,0
0.0008230464991819939,0.00035460482558392984,0.12564397527702495,0.05778964387278465,28,34,74,78,0
0.0008079121055795771,0.00037842845240401696,0.12149326333636769,0.05820976687521761,24,32,71,84,0
0.0008017280346952642,0.0004173442582903066,0.1184772783564107,0.06146621623312987,30,32,70,77,0
0.0007772668172997538,0.00042919755775388033,0.11121152885491918,0.06040148371153247,24,26,64,72,0
0.0007694297164161365,0.0005070258827666647,0.10628692266050252,0.06870186502042486,22,26,61,70,0
0.0007412266437088914,0.0004595274091424173,0.10075891072763228,0.06547225891736479,24,28,64,70,0
0.0007650160888741324,0.00045755615248771556,0.10407596160753976,0.06718301815912618,30,32,66,70,0
0.0007618465189978873,0.0004150799702302545,0.0998202559041228,0.060637379456899246,32,28,73,66,0
0.000773537671394064,0.0003772487224776171,0.10041850230653489,0.05735793220933255,26,30,68,66,0
0.0007275895485097157,0.00039364292895455855,0.09568261035843119,0.06174929136261432,24,30,65,68,0
0.0006411629246046041,0.000415393570263511,0.08279161364438826,0.05254192791205013,22,26,66,77,0
0.0006626651607149644,0.00043849849484042016,0.08395107042325281,0.05576215072516753,26,24,73,71,0
0.0006615698567983767,0.0004496383999302385,0.0864492881046281,0.05765675372138957,28,28,74,78,0
0.0015451341252913514,0.0005430286982368548,0.2206851160459661,0.0310333679919414,34,20,63,29,1
0.0014422437410892225,0.0005650223326353989,0.21865383529794674,0.03121021440972802,40,18,70,26,1
0.0014648691731071505,0.000567234462498963,0.21795394112111502,0.031979079038500995,38,20,74,25,1
0.0013698676365926144,0.0005892833474801253,0.20395163471688585,0.032562921676336044,34,18,69,26,1
0.0012609583851712542,0.0005879026285279536,0.18925902432986194,0.03327885184492667,32,20,73,27,1
0.001323341751445738,0.0005957696271931519,0.20352842005733499,0.03286070243180273,28,16,71,30,1
0.001727750000143628,0.0006065890840649615,0.21440424253101728,0.03359543089384636,22,14,64,29,1
0.0016608509344986375,0.012877328572468247,0.2515212418709091,0.6060448398061689,22,4,66,20,1
0.0017567900469277994,0.013470219045913043,0.258586726818876,0.6241154679838669,22,4,65,22,1
0.0020709692990316035,0.018117594682593604,0.2601236034742455,0.8902536776502494,22,6,60,26,1
0.002221176174693663,0.013769802855110765,0.27092287737298976,0.8474225641570005,24,6,66,31,1
0.0019069008786000605,0.0062259321054143136,0.24885849412686106,0.3432465138018552,26,4,61,110,1
0.0018805412382068972,0.0006731481693732585,0.25694631489517544,0.04192105420818909,26,21,60,32,1
0.0018930713726886962,0.000651308662601351,0.2618938658301738,0.041774560706700894,28,18,67,32,1
0.001468603787450298,0.0006630029348577678,0.2298188442681755,0.041533805786359214,34,20,73,34,1
0.0014347552751065187,0.0006629406266439726,0.22364236223607353,0.042484658449953264,36,18,73,28,1
0.0015807816478876438,0.0006811933099244182,0.22678351162646923,0.042173759983747935,34,20,67,30,1
0.0014527803736279802,0.0006726201377657982,0.19475983165042324,0.04248728155027187,28,18,65,26,1
0.0015406178450121642,0.0006813685079877886,0.19890374353029475,0.042431226688286854,24,20,63,24,1
0.001674858479875572,0.0006541975757900298,0.21412857076638997,0.04191091972663201,28,18,61,28,1
0.0017422486510752623,0.0006709045748625018,0.24235451433244903,0.04140840085700907,26,20,58,30,1
0.0017911486721951782,0.0006298188527183789,0.251263382088496,0.04034357377066256,26,20,60,28,1
0.0018631004537417214,0.0006237079550138712,0.26435003329393103,0.03967196894769804,32,20,68,28,1
0.002021695587073909,0.0006126070945993645,0.2627244412911704,0.03929440922569676,32,18,70,34,1
0.0017692636567846816,0.0006187625562039765,0.2229150597890879,0.0390923299520399,28,20,74,28,1
0.0018716631249974765,0.0006057751468655497,0.24385976077107682,0.039206086507796147,24,20,76,32,1
0.0018033933810549675,0.0006206049469312539,0.23875302504805365,0.03928796294942266,24,20,75,28,1
0.001561033741687109,0.0005941291852273611,0.22814686019720634,0.03818465668223233,26,18,73,28,1
0.001648121598264134,0.0005724331051424914,0.24835289778472963,0.037166052354407945,34,20,67,28,1
0.0015798620516087373,0.0066623045720911435,0.24314099837935874,0.3919277059016157,36,4,67,19,1
0.001529760887267018,0.010190823291152779,0.21997630022710868,0.4906210972011821,32,4,68,19,1
0.0014321245099624142,0.010401238536857206,0.2037499571833737,0.49312214124900605,28,4,71,23,1
0.0012733465585143577,0.010148550633527702,0.16639728568781725,0.4847446596122887,30,4,69,29,1
0.001157725324983839,0.0008144283008188097,0.1383999351064137,0.07538477986235025,30,22,69,61,1
0.0010992415318215867,0.0004972844876184959,0.1327286356247909,0.05881427637680752,30,24,70,73,1
0.0009564310735614523,0.0004331347177699437,0.12038855104525285,0.05556737053108397,30,26,65,69,1
0.0009514418727551359,0.0004285746645800145,0.1214682510306926,0.05584303754963126,28,30,69,71,1
0.0010088525532737842,0.0004074055796609304,0.13640136869235153,0.05716948358300771,24,28,69,71,1
0.0009941604464077161,0.0004125975395443468,0.1430475602360038,0.06140015182485577,28,28,64,73,1
0.0009541178822724179,0.0003980139354062707,0.13400672727380664,0.05839777451807391,30,28,67,71,1
0.0010402555446661803,0.0003964682197806862,0.15001033781364814,0.05448522613405885,30,26,65,67,1
0.0010693657219446831,0.0003972742768535402,0.1553528367654988,0.05347718832099428,32,28,65,66,1
0.0010914849387853322,0.00038233434895287903,0.158700824203244,0.050081605265516964,34,24,67,64,1
0.0012407171029194066,0.0004883420763447028,0.18668356220498714,0.06131997504358529,32,26,63,63,1
0.0013281111008956194,0.0005204189042355712,0.20005500985650837,0.06148909092379676,32,26,62,62,1
0.001589134470693714,0.0005027834921104444,0.21972193901175152,0.062460508728467534,34,26,64,60,1
0.0014915289788750604,0.000549024571014453,0.20543328240434394,0.06454522317827109,28,30,64,62,1
0.0016088634620896247,0.0004437149069978608,0.2189283106384131,0.05656233594367128,34,28,57,61,1
0.0015877359277200395,0.00041132430483305097,0.21115932208680424,0.05276350384835363,28,30,66,64,1
0.00025988869463415386,0.0010938514848119957,0.033586983586996785,0.06148634743565603,34,18,89,21,2
0.00025687228739551126,0.001113632705556373,0.03031988057501408,0.061039129135536024,32,14,90,26,2
0.0002478957552661733,0.0011068869198627778,0.030452931444732094,0.06194082551959695,34,16,91,27,2
0.00025724811808114785,0.0011202090324132369,0.03088553128872866,0.06156750499083903,41,12,89,26,2
0.00025065164510301003,0.001084872572757161,0.032219186130938784,0.06199817008256934,40,18,86,25,2
0.0002609152417415763,0.00109888000272022,0.031916491994162736,0.06106528265793393,44,14,90,24,2
0.00026024447125172717,0.0011171841848849583,0.02977623504833509,0.06194074945325391,28,16,91,23,2
0.0002583861267936438,0.0010950697415499078,0.02801140915389998,0.06176452137249849,29,16,89,22,2
0.0002479882714502371,0.0011045931748288643,0.028896974398606914,0.06244164628617484,26,16,88,25,2
0.00026138531941094186,0.04499559313083687,0.0326056258113355,2.5332206520608453,27,4,87,70,2
0.00024582434031439966,0.04599546861986949,0.03605577623224251,2.5202314123889136,34,4,90,66,2
0.000222983993265885,0.04489536635256342,0.037059008987546604,2.447094451189748,38,4,93,58,2
0.00016456666439459107,0.0010794019530248088,0.0348397557442016,0.05947009633432574,38,10,102,26,2
0.00016937602299565199,0.001089483883538515,0.03490316576816729,0.05819221302729053,42,12,96,32,2
0.00016055538888195498,0.0010080314725336539,0.032397029723955466,0.05642082847368338,42,12,98,30,2
0.0001582677971779929,0.000963488361231051,0.033992688515101406,0.05620405549243538,46,14,98,28,2
0.00016617485769576865,0.0009232923834466007,0.03395474641905349,0.055416427910236626,42,14,97,26,2
0.00015707278528787234,0.0008483990698321477,0.03083502756506764,0.054803163629322825,40,14,99,30,2
0.00014976671987731983,0.0008914962483486566,0.028989613072461805,0.05486339340971451,44,12,97,26,2
0.00013448588944839682,0.0008579994007284888,0.02477555784323192,0.05462695182984956,44,19,96,28,2
0.00013667653830532102,0.0008503573112104985,0.024612804833894577,0.054180571837641044,44,12,96,32,2
0.00011808211265626607,0.0008626847666970448,0.022143447680819224,0.05433270216873041,38,19,95,30,2
0.0001151982105519471,0.0008824303239671806,0.022276541093860257,0.05447216034202178,40,20,95,30,2
0.00010717100300351048,0.0008825739927945174,0.02235522402284343,0.054779476272340144,44,15,98,28,2
0.00010083676483093258,0.0008916722907984845,0.020434383129566018,0.054045657892490565,44,10,92,30,2
0.00010749478978907362,0.000848602530513068,0.021623514562786054,0.053412444551174054,42,15,91,32,2
0.00012389891953937452,0.0008772822472684577,0.021024035439034115,0.05284377045339637,38,16,83,36,2
0.0001276336349411848,0.0008260307452477066,0.022275220040591754,0.05316550729294957,44,19,80,29,2
0.0001376731746233914,0.0008840771963616723,0.0244777644897115,0.0537319249553098,40,16,85,30,2
0.0001278712160255682,0.0008499341241182392,0.025852313636149687,0.054112634153410305,46,19,88,33,2
0.00013798729076755338,0.0008745563190727295,0.0254326532547288,0.054095735708646724,30,14,93,32,2
0.0001367439480776183,0.0008308046656435042,0.024297189804129506,0.05290203727515672,34,15,97,36,2
0.00012510888461072833,0.0008061619980900453,0.020700447883311258,0.05205434593552136,26,18,94,32,2
0.00010495911980810331,0.0008125674005745609,0.018677876978162113,0.05173465316021024,39,18,94,30,2
0.00010292090161395706,0.0008441029469301908,0.016713221905614514,0.051752712204230125,32,18,93,22,2
9.50107282512007e-05,0.0008123487449232129,0.014919911101367788,0.05209845157511763,37,19,96,26,2
0.0001119413623973815,0.000849378128143569,0.015002722668855972,0.05258356818418556,26,16,89,22,2
9.086744639167453e-05,0.0008254872469885871,0.014357159128347364,0.05256749307248362,23,17,87,24,2
9.66425911827478e-05,0.0008604736478186159,0.01422569281983669,0.053048252826462146,30,16,92,24,2
0.00010250922931626838,0.0008395089091121136,0.014498495464208332,0.0533343890599127,31,18,84,24,2
9.267046108924241e-05,0.0008677710044511872,0.012844593741157649,0.05302510169207894,34,16,88,26,2
8.735111473160155e-05,0.0008206946945270474,0.013587985994538242,0.052909544104395564,35,17,81,32,2
8.268347749952521e-05,0.0008396859998374652,0.012492533317344854,0.05219361265130323,36,14,81,30,2
7.751269320367698e-05,0.0008179245693646185,0.011769330961829813,0.0515882483666285,33,15,81,30,2
8.499244911265921e-05,0.00094431281880077,0.012465315715498311,0.052391363937374,32,14,81,34,2
8.810962377869091e-05,0.0008402275215003943,0.01122869176701303,0.05023250894648913,31,14,77,40,2
9.2134476239183e-05,0.0008934261319857841,0.01149991378248843,0.04965054128408093,24,12,77,33,2
8.004384627407029e-05,0.0007245216908348193,0.010690799507941644,0.04761474474182209,29,20,85,34,2
9.185129073009404e-05,0.000901974771248788,0.011366192651912103,0.05084614934647246,20,12,85,30,2
0.001522763160993486,0.0002085726370212392,0.25636888679756326,0.024842526006447648,36,28,73,83,3
0.0013770066620094387,0.00025896765857211446,0.22692246310959102,0.027584240052781022,34,27,74,81,3
0.0012690328008746915,0.0002481153125150196,0.20962020617403643,0.025672575704978256,34,22,76,82,3
0.0012134494678203561,0.00024658210698407553,0.2046714439437243,0.026156730707427817,36,20,78,72,3
0.0014641308087361667,0.00022715304979354013,0.24184029209466013,0.02577254415260691,36,20,76,67,3
0.0014502204786319805,0.00020893605712135474,0.22889634322969626,0.0221844927456021,38,23,74,70,3
0.001622854532751241,0.0001831592786612789,0.2488629708710569,0.02188033527106445,40,34,71,73,3
0.001682296322757273,0.00018172970736907715,0.2534053171589793,0.01995128851777575,40,33,64,75,3
0.0014699280365404338,0.0001583213722830457,0.21190705508023758,0.018031602583178236,30,28,65,75,3
0.0016302969155265667,0.0008863820279174875,0.2322434128706935,0.05674976046409486,30,4,66,70,3
0.0019280135829711862,0.000929411884978691,0.26427600936252865,0.058529984105982605,28,4,70,75,3
0.00202971619384337,0.0009682810916311764,0.279470144545669,0.0610712559049705,30,6,68,60,3
0.0019217238591428083,0.00022042497954765644,0.2910847984666863,0.028621372742769935,36,34,77,66,3
0.001954128750177237,0.0002515535346785893,0.29060362809650564,0.02850918538020027,36,28,77,68,3
0.0017527431017610815,0.0002461159641319324,0.28355705510065005,0.02700598058421761,38,26,78,69,3
0.0016650274606728834,0.00022198612613048136,0.29424047418351945,0.02578455861296619,42,22,74,70,3
0.0018248194188633078,0.00029616963342144766,0.3134038122358568,0.030443739365163324,34,24,77,61,3
0.0019808854914172727,0.0003037906739214246,0.33718282211649,0.028186895635346786,32,20,75,64,3
0.0017403484191448409,0.00033334827682377464,0.3008065791375232,0.030404953117934837,36,18,76,63,3
0.0016815757466393186,0.00032529562370019264,0.29257470823504184,0.0313309937495796,38,22,74,64,3
0.0016774586997491485,0.00032622271881329007,0.2820645266742268,0.028464967398717858,32,18,78,64,3
0.001614892739764794,0.0002938415401364416,0.2640570020165656,0.028949116063165865,36,24,77,62,3
0.001633240388828738,0.00026527544757455417,0.24959482538952493,0.026870366640333664,34,26,74,64,3
0.001558521405131189,0.0003023653258431055,0.2475670916361743,0.027640056849724544,34,22,75,58,3
0.001454889802568553,0.0003078493855482263,0.25295205956458316,0.027731539750204558,36,20,75,64,3
0.0018779286216849412,0.0003335877341070676,0.3020549030387862,0.02945441641006056,30,23,82,70,3
0.0018805687230480151,0.00037372139213461095,0.3256570963829871,0.028602235838125368,38,20,84,64,3
0.0017669370198205433,0.00026446261094117116,0.3144518294131445,0.02458224329194649,36,16,84,68,3
0.0018033174313671282,0.00023651661285119922,0.3088603251133646,0.02330660567391904,30,18,81,70,3
0.0014313377989551095,0.00023174357754254964,0.25422828111466683,0.021993053318758046,38,13,80,73,3
0.0014075015481808625,0.00021949435466861702,0.25534496760014935,0.025353989750298928,38,26,80,74,3
0.0014412214651209217,0.0001946693794909451,0.2616056877655766,0.024007348964311694,42,30,76,75,3
0.0014630320359404487,0.00022665804154123302,0.24915386290331318,0.025852757469012888,40,26,75,69,3
0.0015784621319226474,0.0001570461033114698,0.2712450872307588,0.02211496438101441,44,32,73,71,3
0.001445350684759362,0.00015662332751294094,0.24051692719252876,0.01744824017701852,38,22,65,72,3
0.0017007910347881187,0.00017606515830656262,0.24624556883523607,0.019047455389626107,28,28,69,71,3
0.0018352538707919676,0.00023320738945257425,0.2995633177162177,0.023460719877431254,32,16,69,69,3
0.0017366434849608431,0.0002879125386461891,0.28308086991189907,0.02903822872627167,36,20,75,70,3
0.0019422474247232089,0.00035548428336820324,0.32906441805146264,0.03859653802373501,38,18,75,64,3
0.0019780468394874303,0.00036797066460085305,0.3433015698993337,0.040872836617331744,38,24,81,69,3
0.001916676955571636,0.00030536143286282813,0.34941022044772113,0.03848110442572841,36,22,84,72,3
0.002134376883432843,0.0003233301061307001,0.3746125648460995,0.039426009814146595,32,24,78,75,3
0.0020263456476877144,0.00026928418410702884,0.36494452314238424,0.033337372642719965,36,26,80,85,3
0.002128232758867293,0.00025990637150020675,0.3590968213011245,0.031627532287185275,36,20,74,80,3
0.0015824186684938648,0.0002722497362437318,0.2841979573910392,0.03214149185434646,32,24,78,74,3
0.0016433621321365432,0.0002502098754700962,0.2678712959341693,0.03028207477460678,34,28,73,74,3
0.0015010154471873033,0.00027411497599273156,0.26271356653522077,0.029513392567096865,36,20,77,67,3
0.001507527291813877,0.0003028709504826969,0.22744221292002545,0.027680272463964373,34,28,74,67,3
0.001485388482232107,0.0002755529535556931,0.23372700546695865,0.025787374893695106,34,20,73,64,3
0.00017020606000984516,0.0009033948442884493,0.014759663413185072,0.05006426055900634,17,11,64,34,4
0.00014869023454764516,0.0007883134153970984,0.01429298563130594,0.04740875939375814,22,18,65,35,4
0.00016469426733346207,0.0008747392712433941,0.01413527196452556,0.04799270430271363,23,11,62,36,4
0.00014227304038789886,0.000854086121718113,0.013117504428501292,0.047991620723841694,22,16,54,36,4
0.00016016227507235112,0.00092117619452767,0.013593768242120307,0.05044156011193245,23,9,60,36,4
0.00015011707189523113,0.00089848590225994,0.012831832687174033,0.05054807385777401,18,16,54,35,4
0.00016594252397911512,0.0009296165590342938,0.012421161167496062,0.051542528269008354,19,13,54,32,4
0.00016945156151025706,0.0008954573276293552,0.012534699119640422,0.052525614582404165,18,14,56,28,4
0.0001653357844652082,0.0009298368597938475,0.012121687599424606,0.05245273291706976,23,13,58,28,4
0.00015440756916620835,0.0009047798201170909,0.012100478486636842,0.05090277410639115,18,14,56,26,4
0.00015813824703168273,0.0009385498696435447,0.011299212647173268,0.05010515255598271,27,13,54,30,4
0.00014965191870620282,0.000854798348006387,0.011428407178732192,0.047936173234952396,22,8,58,29,4
0.00016203692181826872,0.000878486954043827,0.011616285688183205,0.047547030024998285,17,11,64,36,4
0.00014288901802995778,0.000802123768574215,0.011223970475849858,0.04591020107462821,22,12,66,31,4
0.00016063548220158222,0.0008389848107510569,0.011645547089677266,0.045898620815317086,25,9,55,32,4
0.00015503523716221398,0.0007856505967633325,0.011895194818150176,0.0450780997228455,20,12,59,31,4
0.0001622308751725941,0.0008378484669764104,0.011854964762766618,0.04552466692691664,17,11,64,30,4
0.00014501164526919489,0.0007983320295577684,0.011606664095739122,0.044828544357593154,22,12,62,39,4
0.0004585542944987153,0.007287141256393565,0.026574719222446547,0.39043490589441676,10,4,61,66,4
0.0006271884783120736,0.06392278617798809,0.039779692716334136,3.7125275600618024,8,4,57,69,4
0.0006714536408370182,0.06798822692320358,0.04687258748145006,3.785767129319423,12,4,49,82,4
0.0004222313802266188,0.06489037308855734,0.03747252753249192,3.549529741863396,14,4,62,58,4
0.0003871863559962808,0.061583246214538534,0.03926242907500454,3.4007308707210746,18,3,63,51,4
0.0002727965613719898,0.00012120599501632499,0.028009809314408225,0.008964401882319983,18,14,58,62,4
0.00025108177623990526,0.00013623328215555208,0.021369324038924765,0.007781501335717035,19,10,66,55,4
0.0002680507691654379,0.00017600516821801148,0.02223435726754896,0.009413425423142557,18,10,54,44,4
0.000241964886544956,0.0002563577793668545,0.017742310417999382,0.01199366840344244,18,8,56,40,4
0.00029694557911424545,0.00035458676379213376,0.024891965675017277,0.014707288614091393,16,12,51,28,4
0.0002765753065283064,0.00034456063091285836,0.025040767283392742,0.01403350295546999,18,8,54,34,4
0.00028116170076893543,0.00025982243182948736,0.026253574360892967,0.010945055672417334,22,4,54,58,4
0.00029255132928185216,0.00013388082059405718,0.024369552675729857,0.0071407402862530035,14,6,61,64,4
0.0002414655017728945,4.5500044654705926e-05,0.018032680709997456,0.003837001956905982,20,26,56,85,4
0.00023579327650397928,3.5431428679984034e-05,0.017141927216269125,0.0036185593060056994,22,20,62,89,4
0.00023970072133229443,3.071568691852872e-05,0.017542002931797054,0.0036208304709068723,20,18,49,92,4
0.00024050556203330863,2.810612108059229e-05,0.01826000983810914,0.003761910392412312,20,32,48,89,4
0.00025562753769937106,3.034126158696981e-05,0.019100034540962353,0.0036242445376372333,18,36,47,87,4
0.0002492599230506042,3.035259203477051e-05,0.019459063089463387,0.0037551262360797193,16,26,44,79,4
0.00024102478157817078,3.2594936362448705e-05,0.01628530954776002,0.003576878119223105,16,34,43,79,4
0.0002476256417862872,3.170802174485018e-05,0.01642355351132746,0.003588702064041077,18,28,46,81,4
0.00022736178721595852,3.0500173898206655e-05,0.01695367115583528,0.0037354036020838333,20,28,47,83,4
0.00024724735597302203,2.7708425538997028e-05,0.01788862718597295,0.0036233587114852827,20,34,45,83,4
0.00027502913096662,3.0300467323781775e-05,0.024527720167239614,0.0039969604549003005,22,30,43,87,4
0.00027615859096168755,3.421824316427393e-05,0.023282926443280845,0.004063154815453211,22,24,51,81,4
0.0002686326576884922,3.570332859707952e-05,0.022962554844625536,0.004077334382504069,22,28,45,82,4
0.0002768106129499603,3.319191970034523e-05,0.023054247768784043,0.003980848064157355,22,30,46,83,4
0.00023888300277508827,3.03687626799793e-05,0.017509521507807137,0.0035503753622309234,22,32,45,85,4
0.0002203483215134,2.6726458792284404e-05,0.017659955454032553,0.0036311847921569676,26,28,41,88,4
0.00023315644924863654,2.6227524141855872e-05,0.01847995154066523,0.0037301471289286825,20,36,45,82,4
0.0002420219083350007,2.791223532108991e-05,0.01739126824730532,0.0037042950289197228,14,36,50,80,4
0.0007880258728599686,0.0006215138362955658,0.09707072063825964,0.10915470868283701,22,20,72,78,0
0.000857346080783523,0.000602877910621921,0.10213307330220497,0.10687536891170238,22,20,70,81,0
0.0008873363850962977,0.000606516231683523,0.10863162764615981,0.1112989986079242,18,20,66,81,0
0.0008153139754880857,0.000553160916513823,0.1005603769707414,0.10189467480878177,24,19,65,80,0
0.0007768987264509982,0.0005599000852191312,0.09041077834886893,0.09444128804797354,26,14,65,74,0
0.0006652454153476609,0.0005160997458050043,0.07971452588852138,0.0900241365733149,26,16,66,69,0
0.000636625703038316,0.0004980560341890528,0.07089819842717959,0.08303392166809276,22,16,73,70,0
0.0005576245515622389,0.0004642821965190251,0.06978565270658621,0.07750446755579951,32,19,72,71,0
0.0005509912863975161,0.0004423440521736964,0.06710456536201084,0.07240676785115743,28,20,69,77,0
0.0005818555140715307,0.00045251602933339804,0.06970350266772593,0.06734733368422634,32,20,63,78,0
0.0006258670878490649,0.00039334218819436626,0.08030175514515539,0.05760924754921117,34,20,62,80,0
0.0006883732042552165,0.00035783312256844823,0.08753546537320646,0.0574655673704105,34,21,64,87,0
0.0007561681775504268,0.00035366042086926,0.10037979878635421,0.05634489811581809,36,20,65,90,0
0.0008068317150069126,0.00033806598517557526,0.10516062575735181,0.05602953195936212,36,20,62,86,0
0.0007638470275977498,0.000384144890535209,0.0982721138427822,0.05770250987825464,30,20,60,85,0
0.0007374527129752567,0.00033585058471033235,0.08825516799739523,0.053343592228935276,32,20,60,86,0
0.0006513337883764652,0.00033018380955532724,0.07306585225532648,0.052341330209353325,32,20,60,75,0
0.0005996190736675212,0.00034781505557453934,0.0638974876867758,0.05401343411207812,34,20,65,77,0
0.000543399095975622,0.0003222220387781206,0.05970499431883946,0.05228193341271015,32,20,67,81,0
0.0005048832874468218,0.000315509989529965,0.058946855943755434,0.05550697410671446,32,20,64,78,0
0.0005303913233753347,0.0003042999419872443,0.06233889569100753,0.054846242494972164,26,20,57,76,0
0.0004952277308045488,0.00032465140161267803,0.06004878894031758,0.05276692270774498,28,20,61,78,0
0.000546521782225669,0.00031582009126078064,0.06400149741108177,0.051424285992253314,26,20,64,81,0
0.0005979035467113231,0.00029843268875795107,0.06705948219203137,0.04247280677118715,28,20,66,81,0
0.0012961439992853314,0.0006980193844468307,0.19471953882599935,0.03858454793791653,16,20,71,27,1
0.0013320545420450957,0.0006380047985653765,0.2025160684391758,0.03584230549322045,16,12,69,26,1
0.0012481815539729022,0.000585228206879009,0.18671211772479418,0.033013241138750905,22,13,73,29,1
0.0012560329207851044,0.0005351640255432705,0.17937619067605712,0.03030026221217945,26,14,71,30,1
0.0010885808503689328,0.0005144269713350182,0.15717527797319908,0.029536302918265304,26,22,73,27,1
0.0010871212655457652,0.0005257632271156759,0.14626448264875586,0.02995231167537341,26,22,66,28,1
0.0008994100720421254,0.0005448789750963566,0.12009727574028879,0.030959885656264573,34,20,66,29,1
0.0008977893575470994,0.0005509743831493962,0.11900275293478425,0.030835360705950377,32,28,66,28,1
0.0008934272893515059,0.0005262169283754812,0.11744097447201139,0.030656406207993994,26,26,61,23,1
0.0009724470400038725,0.0005293763014210285,0.1365635856690648,0.0298913823994263,30,30,68,28,1
0.0011829040670004933,0.0004978836150736296,0.19213474693374105,0.028804194353766497,22,34,73,25,1
0.0013867342045660463,0.0004835550111322068,0.21461002340212387,0.027776730650287997,26,26,72,30,1
0.0013679719849794345,0.0004962762429505674,0.2234584220119657,0.028897113439798547,28,30,72,23,1
0.0015667822293968174,0.00050244259457665,0.25252207027938817,0.02906885878991312,24,40,69,28,1
0.0013656416188817155,0.0005126469798413666,0.2007304278372215,0.029469740781993433,34,36,66,27,1
0.001426868288347976,0.0005170351198303494,0.1956744000449958,0.029483154711346833,38,30,64,28,1
0.0018626656806589325,0.0005168534876120371,0.24362089929055564,0.029459581678531375,34,36,58,31,1
0.0016631350203982367,0.0005271997644848659,0.21809066791912016,0.02980146807504879,32,32,62,30,1
0.002005312563070447,0.0004955191267787516,0.2869722760866663,0.02952400933547503,36,36,67,31,1
0.0018574701072418675,0.0005138175260759606,0.2811646431318225,0.02882098571865833,34,34,72,28,1
0.001599319896902667,0.0004923516744966969,0.25956465331287526,0.028779494812251158,38,32,73,27,1
0.0015657445555201475,0.0005354460783775791,0.2504451526984054,0.029062405040938995,38,38,74,24,1
0.0013803688584253116,0.0005057789517145579,0.22746439053432257,0.029504389250503582,40,36,67,27,1
0.0015739185584812204,0.0005259329896831364,0.24013576666063033,0.029837405147097897,34,32,61,26,1
0.00027477127432818527,0.0008324429593857242,0.038973898365850634,0.049085791962464806,6,4,101,23,2
0.00026347602061229194,0.0008801864071692492,0.04077289931398625,0.05022267881234645,6,4,98,26,2
0.00026684043130685754,0.0009978247067885717,0.04075651194195303,0.054433509048370306,4,12,93,28,2
0.000275315455905729,0.001031675575542558,0.03946915537042463,0.05641987548252704,8,10,88,24,2
0.0002675332462695891,0.0010392244978491751,0.03699589132659171,0.057993305258882494,10,10,80,27,2
0.00029672408145179686,0.00104793327411013,0.03477010274589435,0.05757936048605734,44,13,81,24,2
0.00027264030966783943,0.0009817336019966923,0.03516752196481124,0.05627377124426522,42,12,82,27,2
0.0003013963857685011,0.0009919307041175384,0.03562251560561394,0.05531462919090524,42,11,78,26,2
0.0002588914809342271,0.0009636850354228883,0.0357145456684425,0.05452238274453162,38,12,91,23,2
0.0002935834457758128,0.0010432388488517935,0.035740485147313636,0.05593336926706813,34,14,91,30,2
0.0003034849901949186,0.0010506726754872285,0.03692087676661957,0.05807864213379708,42,14,93,31,2
0.00032351708371514587,0.0011117379079374943,0.036432028313769106,0.06013583541795988,40,15,87,30,2
0.0003226150276635846,0.0010986881293759154,0.037954160935194346,0.06066602079435021,34,10,82,27,2
0.0003105443834951577,0.001088698480715826,0.03576673874391774,0.060531226942306046,36,15,84,26,2
0.0002518797223630247,0.0010880747294313132,0.03209981642743337,0.05968627527401707,28,12,79,23,2
0.00030905365404756735,0.0011075013146257969,0.031147885533376867,0.060057919663665554,41,15,77,24,2
0.0002879545006012459,0.0010850938545261713,0.02986286191988672,0.061049402747746444,30,14,83,27,2
0.00029563760824380007,0.0011620382694172632,0.03219041919967777,0.061709170398639504,36,15,80,30,2
0.0002840538516057597,0.001128533357747333,0.03525551686121694,0.06220581386692785,36,12,81,27,2
0.00028071686792327863,0.0011238107655942879,0.037137259043480746,0.06204868295778515,40,17,86,26,2
0.0002877686325999808,0.0010726218967941508,0.03961792645721477,0.06067256328481235,38,10,89,27,2
0.000301192289116676,0.0011082757860255013,0.03940047953223682,0.060829763421636,36,15,99,26,2
0.00029441886922446775,0.0010738436220492859,0.03866456166723225,0.06033412908858373,38,12,96,27,2
0.00028469049169560956,0.0011103444883636918,0.037606566641010024,0.06063437089340808,39,11,96,22,2
0.0024328451383703008,0.00021321491803723318,0.3812996226372991,0.028690069298490932,46,36,77,72,3
0.0028799560643421,0.00022949276278133642,0.4385911148070428,0.03375342554619575,48,34,70,79,3
0.0025493565255340052,0.0002820492378020882,0.4005359354075067,0.03751292221760149,44,36,69,73,3
0.0025015782960781225,0.0003036171624767345,0.3811172377444387,0.040016661277497714,44,36,64,73,3
0.0025799003075266014,0.00030170203310024427,0.41520530207446515,0.039660460494226356,36,28,68,74,3
0.00276540775283188,0.0003683072589963132,0.3636457842903542,0.03896056667938888,32,28,70,71,3
0.002546846143934069,0.00037051297399758173,0.35502188744677926,0.036615303662403204,40,32,71,70,3
0.0022319674502833185,0.0003447023406377554,0.35120673566199767,0.03225418125330993,42,38,79,77,3
0.001957489138158695,0.00030534302011413705,0.2991226634370889,0.029614324138681487,42,36,72,85,3
0.0016968202515377931,0.00021762409767539815,0.2668480307720703,0.026387184661425648,38,40,75,85,3
0.001564162175512062,0.00023827549400476172,0.2593360020940612,0.02642025112121772,38,34,70,85,3
0.001446518240862852,0.0002577310281844089,0.241762630739397,0.03030942647546373,40,32,70,80,3
0.0013643750779989566,0.0003058764492699412,0.2399766838317084,0.03133394890599912,38,38,76,75,3
0.0015323276178348792,0.0004859242421944734,0.2730194054970535,0.03838330153972381,36,40,75,72,3
0.0018585542273772781,0.0004956807570757781,0.30524637248838515,0.03882860705471507,34,42,74,67,3
0.0022048574658895966,0.0004009634966047468,0.3178345397955472,0.03310164413338784,36,36,71,68,3
0.0019844124787228453,0.0002678091912449582,0.3163630890867651,0.03084153285619428,42,32,73,74,3
0.001816800745484838,0.00021383804082289717,0.2907409262635011,0.02795021345437881,48,26,75,75,3
0.0015214009904845282,0.0002051803235669582,0.25245481729783187,0.025902235336807956,44,30,79,79,3
0.0012916247319118652,0.0002207954787374931,0.21658826932493092,0.026656279316842075,34,24,81,76,3
0.0014275679786136448,0.00020480092638983042,0.23181819524373964,0.024778321044937848,30,28,80,74,3
0.0016072887153497275,0.00020412057637685918,0.2703849794177603,0.023205156858292355,32,32,77,72,3
0.0016928188679466063,0.000212708196914947,0.27455747041921763,0.024565209976041866,36,36,75,71,3
0.0016034341090526171,0.00023728286784254916,0.27294740745174734,0.02497036844376567,32,30,74,74,3
0.0004100149996392559,7.588241412959164e-05,0.026350078116842993,0.006905982334136337,18,21,41,72,4
0.0004196978323454375,7.777032201345875e-05,0.024945286686716167,0.005954090582014719,18,16,41,66,4
0.000398153051543749,7.381742248514405e-05,0.02499736201165404,0.006646118385497859,16,21,28,69,4
0.0004078126782372349,7.545985292474153e-05,0.02423021028797123,0.006815457054689914,20,20,34,72,4
0.0003984543461360106,7.057720456543653e-05,0.024933173078457712,0.006750569926386828,20,21,37,66,4
0.0004056637295447892,7.196699737546485e-05,0.025483363779953798,0.006666758090296779,20,16,37,68,4
0.0004011808895830412,6.70866101583826e-05,0.026266675613722923,0.005750591696802133,20,18,38,61,4
0.00042644534933366786,6.739988417896974e-05,0.02640719382082301,0.005386728889521023,20,18,41,62,4
0.00041646474016653593,6.445125609734805e-05,0.027902571704761826,0.005375232259413489,20,18,47,58,4
0.00043157273447590606,6.144817896381665e-05,0.028313701585007407,0.005320653329220402,20,18,42,66,4
0.0004972551174908512,0.0003635910079241697,0.03443697160559514,0.02194611926014783,18,21,44,59,4
0.0005703548887063379,0.0003946607672792888,0.037100573083205,0.022814538923886345,20,18,48,53,4
0.001760150822086394,0.037952449464539864,0.10200320811941233,2.1262482336049344,18,21,68,68,4
0.0019036433158593372,0.03910297998720215,0.11109116039194414,2.1151566422915664,20,4,53,64,4
0.0018540169234654335,0.03796523416942908,0.12232726864322335,2.0370509268899393,20,6,42,56,4
0.0005485510972657863,0.0009937548674634224,0.06245046904875347,0.055578552820727725,20,12,59,36,4
0.0005999703692618298,0.0009460711561558252,0.06741009794408918,0.054319868586536126,18,18,63,34,4
0.00047411873145453197,0.0008790519738895718,0.056795571300477514,0.050519812143889925,20,20,60,34,4
0.0003481619216100532,0.0008977103191766821,0.034479530698796404,0.05071403272203602,20,20,60,36,4
0.00025014066993225397,0.0008703153051972879,0.026766125670039286,0.049927027364469356,20,20,53,35,4
0.0001724760208563078,0.0008979057710254676,0.014735937020545339,0.0500899886832908,20,20,62,36,4
0.00015428781060107923,0.0008816782967054357,0.014956527290640802,0.04885198517167673,20,20,57,35,4
0.00015971244164652174,0.0009379273782798609,0.015077918407981887,0.05251793642509081,20,20,62,28,4
0.00015593407183920065,0.0009048446987058749,0.015590144158524916,0.05100452427028835,20,20,70,34,4
