f1ch1,f1ch2,f2ch1,f2ch2,f3ch1,f3ch2,f4ch1,f4ch2,Category
0.0007901078352779042,0.0035865503622421104,0.12737991354089573,0.4201974192246022,36,30,86,56,0
0.0008320969487103516,0.0036889996828296735,0.13325222861972774,0.43283267570870465,36,28,77,59,0
0.0008461587279621796,0.003910486628907968,0.14125116608619007,0.4608117785582312,38,28,77,53,0
0.0008762051121841102,0.003764445999972189,0.14396941225041776,0.45626173663649633,36,28,73,53,0
0.0008934446688734632,0.004014463618208578,0.14429274056672298,0.48253048290128764,36,24,73,59,0
0.000875527527829741,0.00337895692612483,0.14182287335308152,0.4568198674705708,38,28,77,61,0
0.0008821781332280744,0.0031175314246898135,0.1392216129897624,0.4372950328131965,38,32,74,63,0
0.000867696396695202,0.0031104346577463526,0.1338743828816044,0.4551016099483679,36,26,75,62,0
0.0007934418615695132,0.0031383945787466943,0.13205080131359606,0.43261946691380476,36,30,70,60,0
0.0008974023633516287,0.003042391320195159,0.1307081046717198,0.42588162663729734,22,28,72,57,0
0.0008090719657465307,0.00302988037209118,0.11656669018587246,0.411356004835739,30,30,68,57,0
0.0009008526312600162,0.0026874380230787615,0.12887821871595995,0.37401819717138135,34,30,69,61,0
0.0008197842405943311,0.0025377142309175476,0.12218218141020541,0.35410930904163984,32,36,72,63,0
0.0008001013967260296,0.002695437032776281,0.1234055888742809,0.3676962370301963,36,34,78,64,0
0.0008187353463731868,0.0027901882523974617,0.13521833652618695,0.35679559837400543,36,28,80,65,0
0.0008373355862120001,0.0031013486659484486,0.12731240459933435,0.3956387236107504,34,30,80,64,0
0.0009166546172915701,0.003542003436762683,0.13125396704155323,0.44486923701289954,34,24,70,58,0
0.000978334089948624,0.0035293483240228097,0.13425429481085388,0.44520746927222643,30,24,67,53,0
0.0008802247410545913,0.0037515996525126116,0.13621256732838913,0.46637320744461147,40,28,71,56,0
0.0007943975169172365,0.003693150271334073,0.1358613973682285,0.4549892828638883,38,28,75,57,0
0.0008026852913220303,0.0037073091396767426,0.13499727450399657,0.44623186296506306,36,30,76,60,0
0.0008068143075720829,0.0035381288579582493,0.13263755388206291,0.4442849974743571,38,28,75,67,0
0.0007689315018626492,0.0035677130222205216,0.12713569175245215,0.42392757358173105,36,32,77,61,0
0.0007305939161433489,0.0035803226502132564,0.12049082441371192,0.4315374470847839,34,26,73,59,0
0.0007510123142661501,0.0035351866096192254,0.12529034920608143,0.4201083379544859,36,28,72,55,0
0.0007194383904880119,0.0037726490475795404,0.11880146446741581,0.464127346621341,34,28,79,49,0
0.0007711398307340599,0.0035024005115822906,0.1168307879524935,0.4259602074373633,28,24,72,54,0
0.0007585297118474904,0.0031569104456136542,0.1189065861224062,0.4121933739677022,26,28,72,61,0
0.0008572227856650215,0.0035385564543171395,0.12804217790445563,0.41824355123111606,26,22,74,60,0
0.0008116718653857986,0.003261302769770366,0.12853742299988075,0.3973365216655851,30,26,71,61,0
0.0007605423521811998,0.0035564585951166645,0.12223849563297101,0.4419177961200613,34,30,72,56,0
0.000791405307273348,0.003407367383655142,0.12623353498407713,0.4215827338543646,34,30,66,50,0
0.000846921884165681,0.0033026708480033886,0.11357725528111945,0.4118637696799872,32,24,68,55,0
0.0008278818418586587,0.0035087845802483694,0.12120045811213856,0.417526783077766,32,24,70,55,0
0.0008767200452114165,0.0036998271759952567,0.13302549650900866,0.4513305608157015,36,20,70,55,0
0.0008221810016077502,0.003984994339141815,0.13444787787727078,0.46529398533960087,38,26,69,62,0
0.0007910717856115509,0.004238416430185854,0.13579876261434856,0.474726196925767,34,24,71,55,0
0.0007755194735805318,0.0038168381683070045,0.13144094804931244,0.4616539053146554,38,26,75,64,0
0.0008213667057702553,0.0027730948428189932,0.13150128578170542,0.38432227345505926,34,30,73,68,0
0.0008224583689284131,0.00214996533819364,0.10632454796035155,0.29851778106058247,22,26,73,62,0
0.0007266739482533263,0.0014530072680183233,0.08601638746498642,0.20246470354113433,16,24,70,73,0
0.0006078513065843318,0.0010783624816471133,0.062437797901432,0.11996017854692645,10,14,72,76,0
0.00022164791952237318,0.0004902132759089998,0.030452701041305548,0.057055254410722706,30,30,63,68,0
0.00022128708092676176,0.0005671453086437615,0.03156074555357932,0.05823970011617683,28,30,70,65,0
0.00021792203449749932,0.000601648550164205,0.030469315452512028,0.062496103469341646,24,30,69,63,0
0.00021687463801396022,0.0006092022653711743,0.029973265739834436,0.06546462298841134,20,22,64,57,0
0.0002021756677188827,0.000597608972647846,0.029571605160721697,0.06422596160677194,26,24,65,54,0
0.000219921598063251,0.0005256194383496648,0.030732376835400664,0.062770720567277,28,26,60,62,0
0.0018687643950050508,0.0018329106128918426,0.16066603238441615,0.22737641877860654,14,22,58,62,1
0.0026153381825749903,0.002254351691793315,0.21366075168332332,0.27852539719806674,14,24,59,69,1
0.0030345380639991678,0.00212500416666187,0.26400497305041004,0.2950355888130522,20,30,57,77,1
0.0032443195767716797,0.002299655498868547,0.30719503162238904,0.3206492026569705,20,30,56,80,1
0.002951042848400386,0.002055948478277587,0.30566284912538033,0.29636026582153546,22,32,57,87,1
0.002979726786200644,0.0020634679079223005,0.29251764138793424,0.3071702508641174,26,26,49,87,1
0.003363200451752602,0.0021442539835426436,0.2992491038956881,0.3219663631525355,20,30,50,81,1
0.003374423469165946,0.0021611684602703195,0.32569592623236426,0.33460792924436666,22,30,46,80,1
0.004076075332184598,0.0021340336219665417,0.34597795413172394,0.3427613211240861,20,34,47,77,1
0.0033938458198509358,0.0020175159214223673,0.3310854417066229,0.32844242264654905,22,30,59,80,1
0.004105193966927595,0.0019494747130640389,0.3698231363237839,0.32192797138596596,22,30,56,80,1
0.003887485725216276,0.001859578415066607,0.3529455320257244,0.29247373185969056,20,30,59,77,1
0.0036278266112869497,0.001880243512469064,0.3596379707986953,0.2856483325691117,20,36,60,79,1
0.0039712502539280695,0.0021265065023361625,0.40572538756693727,0.3073156340862596,22,40,60,74,1
0.003641184155693272,0.0021533620807304464,0.3731791929889179,0.3054990413274419,22,38,58,70,1
0.0036976759347103596,0.002361111222387255,0.35748291209532407,0.3080413855284339,24,36,59,68,1
0.0038437502873592687,0.002280457805888887,0.36760501045079114,0.3356107417246392,18,36,62,70,1
0.0032496899222894528,0.002125250793827967,0.31250858071157334,0.3077154537207516,24,34,55,72,1
0.0034633413955479607,0.002015885147379356,0.31933200788036287,0.2944671626612849,20,32,58,73,1
0.003118041739845785,0.0021246979113571348,0.3123675466126727,0.31067637586919944,20,26,57,74,1
0.002934666730578456,0.0020289946895937615,0.29456672830471897,0.28972132143953927,26,30,55,71,1
0.0031632698035925573,0.002004543441539297,0.3319193259094384,0.2995830490459426,24,30,51,70,1
0.002925372909660802,0.002194146565913249,0.3306911002884757,0.31907005542462047,28,28,53,71,1
0.003325488187430991,0.00217172638540707,0.36529014191834897,0.3225447805354385,30,34,48,74,1
0.003554069473510974,0.0022185051418605823,0.37596436607147016,0.3428014574821023,26,40,52,66,1
0.003801316628009076,0.0022704021612735934,0.38491743207612655,0.3457818509160292,22,34,53,65,1
0.0034265802845607173,0.0021319516261467924,0.3599829007065393,0.33696465418681304,26,38,49,70,1
0.004049256126691011,0.002063202942135658,0.3859638295756256,0.3286415239426703,32,32,47,76,1
0.003776713947246941,0.0018708244447542433,0.3663508748550408,0.32101392300189435,30,42,51,83,1
0.003502920230466038,0.0017633196296909218,0.3420724102909373,0.28992865948282914,28,44,52,77,1
0.0033520539382273684,0.001693682663675579,0.3335422843588063,0.2845564293501294,24,44,55,76,1
0.003475034910092609,0.002041656687131127,0.33687271347127484,0.3051029028147339,20,30,58,66,1
0.0038888684173208642,0.0019174902243219972,0.34287310142133,0.3020916820906976,18,32,56,75,1
0.0037986914623336877,0.0020625659336498477,0.3535103271008248,0.33817570448597684,28,36,54,71,1
0.003622901178104864,0.0022740559099318114,0.33900047934371313,0.35763039338800373,24,36,58,69,1
0.00328681888620374,0.0022256140890897502,0.3122910501632187,0.3394544428341365,28,36,61,67,1
0.002682738603280872,0.0022787338234625566,0.28989406409794366,0.3485339384411448,28,34,66,65,1
0.0030032791586948036,0.0020951454562066324,0.2971175478849717,0.33069596297578585,24,36,64,66,1
0.003680581011932191,0.001982002923915683,0.31462160968919595,0.3237824050796956,20,32,61,69,1
0.003978919138068289,0.002247955697850069,0.34326511097389906,0.3425935506910102,22,34,60,79,1
0.004093204997990806,0.002228066304704529,0.3712927088034579,0.35501239150837327,24,28,54,78,1
0.0036812554407806347,0.0023011322879810656,0.3490632571894785,0.3568395314477865,20,32,52,84,1
0.0032569606595959015,0.0021702726039602906,0.31338184566913363,0.35724091854865664,24,28,53,83,1
0.00412297186696879,0.0020471953491331104,0.34923489591684753,0.3538522087865724,18,34,47,83,1
0.003762358914345823,0.00208145404230994,0.3381261275272891,0.33046694221602907,20,40,57,88,1
0.003999227975487309,0.002143886087417694,0.373094452155521,0.3328545506847919,22,40,50,82,1
0.00382892160959207,0.002311389830122489,0.3766455217228892,0.3600116971401335,26,38,51,81,1
0.004008073913767292,0.002112133483746992,0.39531562491257355,0.3315062562879587,20,38,48,79,1
0.0006126418796843372,0.0002761403454084975,0.07650041089912776,0.05034246914094394,26,34,74,83,2
0.0005853556133865066,0.00028794372511542835,0.07185343428997673,0.049091824784268136,20,40,72,83,2
0.0005666133053010732,0.00032421866084304183,0.0753324219243116,0.048282085166543746,26,36,74,87,2
0.0006192175689402438,0.0002879519981639579,0.08274574210011464,0.046228539998540374,30,36,70,93,2
0.000634404489722751,0.0002951424040087728,0.09043080942524302,0.04865915817995121,30,32,70,93,2
0.0006423618139449763,0.00029074950016251875,0.09534860238516016,0.04889436652195546,30,38,68,95,2
0.0006754653176208303,0.00032521822815400546,0.09837654611898232,0.04985856387029948,24,34,69,94,2
0.0006814140743534184,0.0003250060969474284,0.10276260275069256,0.05411895763024717,28,40,67,90,2
0.0006623008399224057,0.00032479757371349933,0.09721881116981997,0.055262079323066184,26,42,67,87,2
0.0006084698747380438,0.00033647355261758917,0.09756667157608798,0.05964634775126323,28,40,78,84,2
0.0005597884526864186,0.0003326729824383637,0.08895586000859432,0.05701097105692423,28,42,76,85,2
0.0005020168113736069,0.0003401650917984464,0.08219178877333098,0.057171769936189575,38,44,83,91,2
0.0005673930858739664,0.0003382028155668719,0.08964554237903946,0.05421544640551738,30,38,77,90,2
0.0006558622059281897,0.00033881700687224994,0.09249511070478571,0.05368267298718551,26,36,67,88,2
0.0006470315358966685,0.0003388652040698269,0.08998817225634413,0.05515550517998204,30,40,66,85,2
0.0006735393124965231,0.00033686264276284826,0.08948063067925538,0.0493936516463874,26,36,67,85,2
0.000598246278548885,0.0003329405034735231,0.08481739142643463,0.055751185786792286,26,32,66,84,2
0.0005571029300389183,0.00032785108203087866,0.08331848278577408,0.05512041534592753,34,34,69,86,2
0.0006024746241104956,0.0003435276586942658,0.08869662197042391,0.05817653448946197,32,32,69,87,2
0.0005463817997668046,0.00033328152999557536,0.08298312643716381,0.05549565949720451,32,42,66,83,2
0.0005305177376224858,0.0003206735792231736,0.08234762409733615,0.050746856309285424,34,36,68,81,2
0.0005548355824335022,0.00032547084632674833,0.07702760166448454,0.05009776734226403,26,34,69,76,2
0.0005475882697557405,0.0003088839993197219,0.07955343103764075,0.04848957220777348,34,36,74,78,2
0.0005791040791456991,0.0003106316997000594,0.08355607720689494,0.051188577878139206,36,32,70,76,2
0.0006227853391736434,0.00029230498156725923,0.08405377410271846,0.05109097707392,36,40,68,80,2
0.0005900675728533529,0.000273818180327088,0.08623695723302378,0.048993241317311524,38,38,58,87,2
0.000614072736293262,0.0002981364980962637,0.09388680356228818,0.05211964507416485,38,40,58,85,2
0.0006496422064575631,0.00030645280020172777,0.09945674972124512,0.051390323467204055,34,38,57,85,2
0.0006181553173444842,0.000327025057329493,0.09869476544234869,0.05262172083789912,36,36,65,81,2
0.0006410757521024453,0.00031947838609411934,0.10147460241975224,0.05406416099231279,30,34,66,73,2
0.0006346046918873593,0.0003288283105968854,0.09734494830641241,0.04949357024290012,40,38,65,72,2
0.00051343383083988,0.0003001447313935478,0.08652182951643847,0.04837349722148483,34,34,69,74,2
0.0005629826572044894,0.0003087496779016857,0.0884954368937028,0.04529848587758133,34,40,68,72,2
0.0005279702854202404,0.0003243250620010965,0.08279615418604408,0.0463293724837111,32,34,70,78,2
0.0005001415543189353,0.0003418396155530319,0.07261139596955592,0.04790873302015983,30,32,69,76,2
0.0005310598043209033,0.00036023480381836524,0.07209334339698556,0.049948868519697064,30,34,62,76,2
0.0005085179811490256,0.0003683348769645705,0.07186929673397403,0.05272511640876964,30,36,63,80,2
0.000556575351992727,0.0003379459650453023,0.07303006831096649,0.04962710247812677,28,40,68,83,2
0.0006166714497218126,0.00035749653943756656,0.07473713744332433,0.04977889051631155,32,36,72,83,2
0.00098238949595675,0.0007831510551810999,0.11229532918895754,0.06783333375463027,18,14,70,76,2
0.001181048180003575,0.0007963059672835757,0.12058531490321878,0.07375392990680475,20,14,70,77,2
0.001649840577663529,0.0008013946195253408,0.16001024600774483,0.08315145195427508,16,18,63,82,2
0.001385911862464182,0.00047491680383827115,0.15654422334161364,0.08193499243000063,24,36,70,83,2
0.0014614859906465535,0.00045109832293457745,0.1581863841996514,0.08045212072962694,22,38,72,93,2
0.0014360916808926968,0.00045520378916094693,0.17232811880238375,0.07795225985245445,26,42,68,86,2
0.0013207935510529249,0.00046975352359346654,0.15665109242494388,0.07895956670163173,30,42,72,83,2
0.0011807879856756747,0.00045026042745236123,0.16647543332902742,0.07306723882557985,32,38,72,82,2
0.0011987966379010677,0.0004519906773321799,0.18274053196608886,0.07640009643596742,38,40,69,75,2
0.00012478595311125458,0.0006870350108589059,0.01201459238454266,0.06699249590859065,23,16,65,59,3
0.00015629307489938748,0.001323738850553312,0.01518048557165672,0.13431031631124848,18,12,66,53,3
0.0001879964844891549,0.0022911815704383166,0.02028961843804158,0.24034243574810318,31,20,71,52,3
0.0002700548948674009,0.0032305380420509008,0.030819217243975558,0.3627788607768104,28,24,71,44,3
0.00031077188231667263,0.0036558894407598542,0.038475184791885594,0.4323053199772339,30,28,74,47,3
0.0003530384824794733,0.003914462987792446,0.04694258497314462,0.5244362819648909,30,32,75,55,3
0.00036122109061588405,0.0038134554287639843,0.05288742528174526,0.569053922247718,34,36,75,65,3
0.00036948662432033125,0.004288198132108045,0.05884076077184466,0.689182360639135,34,40,79,69,3
0.0004425949076541934,0.004398389459697108,0.06462246182543728,0.7363557894513879,40,42,76,69,3
0.00045411994615956173,0.004489942032813653,0.07107379655079847,0.74856634997541,36,42,69,70,3
0.0004834269412606243,0.004453562344399104,0.07111046796994222,0.7471267732744193,38,36,72,73,3
0.000457885722298119,0.00439484396877223,0.06716081286656338,0.7404123736846305,34,36,77,69,3
0.00044697070203608073,0.004864475330218158,0.06602505746146962,0.7753978714663353,34,32,79,80,3
0.00044742104562256745,0.005165097606332975,0.06780914230694877,0.8776335107304611,34,40,81,79,3
0.0004660787432423676,0.005509518784612901,0.06982297007206902,0.8899084192385585,36,36,73,80,3
0.0005141146714418491,0.005636042799365888,0.07025414895692055,0.842856942012851,34,30,70,80,3
0.0004707585937071152,0.0056402328564879155,0.07184032954610575,0.8780706680314643,35,30,66,80,3
0.00045187732472107717,0.005049947125221791,0.06713921492958265,0.7769465170303639,32,26,67,82,3
0.0004877472353353122,0.005152602065218131,0.06899402997456194,0.8081416457354744,28,28,72,80,3
0.00047414161421015943,0.005194960773341231,0.07205039904031181,0.8425507734440406,32,36,72,77,3
0.0004710387081578581,0.004809834579951734,0.07036065918124328,0.7939071700363701,34,38,74,67,3
0.00046500046384913984,0.004948937463451084,0.06915610292711807,0.8097797651330473,32,40,68,68,3
0.0004103419769950313,0.005017579476987184,0.06693331690780494,0.8202568300178505,32,34,71,65,3
0.0004066269328117165,0.0049640588785719655,0.062115708847292575,0.7930228571602556,36,40,74,72,3
0.0003673045842534693,0.004851840230463558,0.057952483244849924,0.806472481568372,38,40,78,75,3
0.00041302810491696776,0.004580960764855374,0.05707640093527227,0.7765232358554517,34,34,75,75,3
0.00042331904806650235,0.004331541092578076,0.058310912291567325,0.6728644691985017,34,34,71,77,3
0.00045518282681889584,0.004156702364996563,0.06038757468420198,0.6675998541980347,28,34,73,80,3
0.0004249848372812963,0.003995749782716965,0.06626175803631368,0.6276137950054086,36,34,71,78,3
0.0004019111784644688,0.0039474290839723765,0.06539136795079906,0.6647094217317355,42,38,72,77,3
0.0004271911365508922,0.004489214624400522,0.06315507335171254,0.7507898826487447,34,38,73,75,3
0.0004280047797506623,0.004858799530914856,0.06150914081186224,0.7390701471198617,30,32,68,70,3
0.0004233837162272827,0.005271059848779233,0.05885481321763619,0.7975342053106335,29,36,67,70,3
0.00046186891461804394,0.005279982653436624,0.05882578257993885,0.7975708076512416,24,36,67,70,3
0.0004738038027212103,0.005256120539088537,0.05685722056530856,0.7741999112922769,22,38,76,75,3
0.00037828585606595696,0.004274784739109286,0.05145155674385754,0.7174879005394951,20,36,74,83,3
0.0004183966495755237,0.004554874533543353,0.05641769999674861,0.7306124309678277,22,36,75,79,3
0.00046989809105377504,0.005057448278591369,0.05804266290176756,0.7530329778991038,28,36,77,68,3
0.0005432895658966574,0.0056785665173375325,0.0626866927210081,0.7607625985691853,30,32,67,63,3
0.000576297224614099,0.005094092407218566,0.06770791847523781,0.6613477609854361,20,22,70,58,3
0.0004932330654369489,0.0044826113584044555,0.05902932968424013,0.5390369886656593,22,20,74,67,3
0.00044228246097187146,0.003630214784570493,0.05556228993830094,0.46942207930036434,20,30,69,59,3
0.0003536074404116605,0.0027314126065924467,0.04668287246538608,0.39167879690346485,22,30,68,66,3
0.0003274005475897288,0.0031712358071826923,0.049458575275048995,0.46794534580644565,30,46,69,70,3
0.00038472619887099254,0.003530300828184145,0.05793925474824638,0.5416562590491774,32,36,70,71,3
0.0004141925461241674,0.003858206364000058,0.06510640396457305,0.5959319507674161,32,34,71,73,3
0.00045860962925521007,0.004583962051675374,0.07118480787054404,0.708927549635311,30,34,69,66,3
0.0004964614664139883,0.0050490812286265625,0.0764527995457086,0.7680175761417936,36,38,66,69,3
0.00027478415693852216,0.0006049696068158917,0.03897542461288637,0.07084932672042897,34,24,65,77,4
0.00028752130339837993,0.0006741186540169058,0.03966943242901989,0.07466148206190763,38,20,63,61,4
0.00027372691816788744,0.0006824370635416932,0.03725524235945781,0.07802850495094826,32,24,65,54,4
0.0002616250433609832,0.0007040285482137014,0.03642633899492471,0.07804378221076452,28,24,76,55,4
0.00023813214072475184,0.0007249092970050619,0.03523985736745997,0.08034674636916173,26,20,79,55,4
0.00020999170283456263,0.0006722389642667695,0.028809609994076706,0.07771539087097408,30,22,76,54,4
0.00021817932742380984,0.0006290573750554365,0.03193655454255595,0.07096100434733221,34,20,68,62,4
0.00024803595249341733,0.0005982009935105556,0.03136011679354725,0.06929453802272827,36,22,64,59,4
0.0002630403612173111,0.0005232532312248734,0.0324957861450061,0.060752389996255186,30,14,64,65,4
0.00024997875035315205,0.0006052738035120575,0.031598518024358854,0.0649591236704136,30,18,74,65,4
0.00022891158956571365,0.0005604636008607535,0.030610764882501192,0.061993766280469896,30,24,70,67,4
0.0002388809235278873,0.0006570613430039635,0.02981272470600494,0.06573143828515549,26,20,68,62,4
0.0002209574751741942,0.0006325619843491971,0.03087876994769353,0.06514833362412453,28,20,65,65,4
0.00023494526592141807,0.0005966012617424276,0.031250092611046096,0.058742922385125476,32,22,66,63,4
0.00020589092493226126,0.0006097476501880331,0.027828689818489565,0.06218856821909809,34,22,71,66,4
0.00023320155956225956,0.0005582958382773747,0.03128386699745269,0.06380800007759838,30,26,68,69,4
0.0002115719308756988,0.0004864525039680529,0.030897382054528535,0.060440020578293334,30,32,78,69,4
0.00023268031887819767,0.0005563620169867974,0.03367282233402678,0.06971409359311036,28,24,72,69,4
0.0002313027850465254,0.0005746727988722886,0.033433465591763495,0.06852214691460912,26,20,66,67,4
0.000262271962774511,0.000545779880357325,0.034315108512330994,0.06733117017474004,20,22,59,69,4
0.0002302460542741907,0.0006108860816791205,0.032605267392649906,0.0725778372305773,30,22,63,64,4
0.00021529576184562454,0.0005547712797323835,0.030444305530335884,0.06597536396398668,28,24,59,69,4
0.00021477432009423152,0.0005411883469796262,0.03251951678152128,0.06466364492000788,26,26,65,71,4
0.00021253431768140764,0.0005579412321603317,0.030175738730996257,0.06560930883851926,26,26,67,65,4
0.00021733334120725714,0.000535659344206219,0.031172948291572793,0.0673083623016323,30,28,68,69,4
0.0002194079530975112,0.000521939045672283,0.030679764001075572,0.06575228933910438,28,24,75,75,4
0.00021221448375971673,0.0005624716253930821,0.029663216891613525,0.0719569719858524,26,28,76,73,4
0.0004826531269309143,0.0007852442629074359,0.03933727497301732,0.08070124607247557,8,24,73,69,4
0.0005538063453142656,0.0010153620777304739,0.044764494368705776,0.0943440615318037,10,15,72,62,4
0.0005804724553709037,0.0011089352917416785,0.04767928722126676,0.10115622417553355,10,16,70,61,4
0.0003342757705523367,0.0010648923563726532,0.03784108073111393,0.0962617639021715,24,22,62,64,4
0.000359446063579497,0.0011200646919344772,0.039834827847846165,0.10467037111719013,24,22,63,63,4
0.00032712439081766646,0.0007798985127663677,0.038135304134788564,0.08739837085306917,24,26,67,61,4
0.0003409713722795511,0.0006544214200611371,0.042679070823947486,0.08096723057614372,28,32,60,67,4
0.0003590375681463489,0.0005849580715021614,0.04283872450080543,0.07408680783230102,28,30,59,73,4
0.00036409282133850534,0.0005568735490123363,0.043713302661941685,0.06743647862607177,26,26,61,65,4
0.0003659730234670481,0.0005288585611942945,0.040154642774248205,0.06849202035097489,22,28,61,66,4
0.00029597708998714756,0.000613003435306652,0.032794709131972695,0.07147098646477912,22,28,66,65,4
0.00031766703720202417,0.0005100238380071388,0.03461004743265262,0.07061092375885543,26,30,66,68,4
0.00033286436739802687,0.0005301304230583525,0.0358782775721466,0.06923953392506547,26,28,59,72,4
0.0003457377143332476,0.0005399606292137917,0.03683060641980186,0.0683330782631279,26,28,58,69,4
0.00035919182824804764,0.0005258348980227476,0.038674540988365216,0.07066680922079331,30,28,60,69,4
0.0003934923839641935,0.0006490411755196718,0.04059300162251222,0.07647082117850504,24,24,58,62,4
0.0003254645098606871,0.0006702965870430015,0.037139832829505524,0.07526108644818894,28,24,60,68,4
0.0003145852944901216,0.0006336572298057075,0.03499950949226644,0.07636386828201043,24,24,56,72,4
0.0002926685515233493,0.0005955349113504799,0.03324943128798256,0.07095384401052145,24,22,60,68,4
0.000252726476806738,0.0005223731244549773,0.029412786064096225,0.06743251671364725,28,28,66,74,4
0.00026861863327901016,0.0005722986716742096,0.03247558665541113,0.07069385874152238,24,30,64,70,4
0.0010085733940813609,0.00405467336739284,0.15113522103256716,0.4771940019557078,36,18,74,53,0
0.0009648796025681972,0.0035781730830156027,0.15504204447601336,0.4638141024803213,40,22,69,57,0
0.0009117286673703341,0.0036212755517772283,0.14406014460039804,0.4651814731048839,36,24,74,55,0
0.0008818657898162951,0.0034615077239846114,0.1426431400821719,0.4372735404643043,40,24,76,58,0
0.0008709278952790095,0.0037267498182912,0.13908286372303555,0.4413155223401089,36,26,74,64,0
0.000833163850522199,0.0039516301721066885,0.12856089681723507,0.4560585162213497,30,26,74,58,0
0.0008194404399768487,0.004193867708519197,0.12440967348653556,0.46087615179388003,34,28,76,57,0
0.0008129370962294419,0.0046852716076634,0.11642658631112428,0.48568401526419797,32,24,78,54,0
0.0008676139520409665,0.004360701529711045,0.1273234497205133,0.4730517902745462,36,24,74,56,0
0.0015034235285225793,0.004624754480912921,0.1444469658319595,0.5053031925886572,24,26,76,56,0
0.0014351297504307642,0.005000703099606671,0.1517857173442809,0.5519420621634932,30,22,75,54,0
0.0013783429844908446,0.004655117390912478,0.15055369928563272,0.5827189589355287,28,32,86,54,0
0.0008104144750015743,0.004591408045184646,0.13013937631858885,0.5370894647344278,32,28,89,50,0
0.0009394467801018794,0.004767231329096208,0.14447799098998346,0.556852550428254,34,32,76,48,0
0.0009894366985206656,0.003951468081939553,0.1548617650540751,0.49248968290939465,32,32,79,52,0
0.0010242123556667617,0.0039038744609850877,0.15969517700588448,0.4513942812026772,34,30,73,57,0
0.000986390273748937,0.004000884597281713,0.15269012663174972,0.4397788340126518,34,30,71,59,0
0.0008803646087280954,0.003795120715898006,0.14170061610675452,0.42728716102696085,32,28,73,59,0
0.0008363677835501144,0.003940556996446508,0.13287763832705,0.4564375316817388,34,28,73,58,0
0.0007675081357212375,0.0036932333725411045,0.12870668950292102,0.4534865945168058,36,26,77,59,0
0.0007033436067590994,0.0033468270043263064,0.12930563821672553,0.4210994751780559,38,26,82,61,0
0.0007967732166539231,0.0030000319868039972,0.13188925957157613,0.4082712040138085,40,26,79,62,0
0.0007778499718232619,0.0029382512717920526,0.12226079276302428,0.37188193793061974,34,26,83,60,0
0.000775894402739617,0.0026583792477834368,0.12242512676336804,0.33572731977922227,34,26,84,60,0
0.0008238392629175805,0.0028298139907624565,0.12023875272805283,0.35023602963188843,34,26,80,61,0
0.0007836135262929096,0.0026182929981010262,0.11796143443917335,0.3254640028925215,30,26,80,62,0
0.0008637863121744832,0.0029591378749308527,0.13476322896643733,0.37019868823706653,28,29,73,65,0
0.0009469652029733327,0.0034725110348324713,0.13734049112860683,0.40990881353079756,28,24,67,61,0
0.0009701842785020328,0.0039837243600564605,0.14745511072775044,0.4491142529892082,30,28,67,58,0
0.0009617428671855626,0.00473449277360581,0.14383590816402753,0.504274323659256,34,24,68,63,0
0.0008412557403228393,0.004355235821023832,0.12588489789914795,0.4563679337845986,36,30,75,61,0
0.0008101314919792402,0.003757858627908044,0.1295558160680949,0.40646797995356426,40,24,74,66,0
0.0007594499187271666,0.0034743115870732705,0.12775843189652603,0.3824231433165347,38,24,76,62,0
0.0007986027879523411,0.002785372978557946,0.12879724451846097,0.31772076917265946,38,24,73,59,0
0.0008385911448921772,0.0030182640764389187,0.12924258240434833,0.32763920987785844,34,26,67,60,0
0.0008591297728973247,0.002782032741580221,0.1297738345141329,0.3498618017401984,32,28,64,58,0
0.0008311269946397352,0.002963466316946304,0.12471162730854404,0.3461640498562969,30,22,64,58,0
0.0008362815857781251,0.003089121395886998,0.12855281369375718,0.3708180982698681,32,24,63,57,0
0.0008638121503041048,0.0030071847829188144,0.1357794088937402,0.36239630521173716,36,26,64,50,0
0.0008206229385015642,0.003119127494982496,0.12862908829732098,0.3480184895238435,36,22,68,54,0
0.0008253030554033342,0.0030914612955880473,0.12401285382952772,0.36490203306318625,32,24,71,53,0
0.0008277221032379895,0.0028982245470714142,0.12213173729034367,0.36278380562215556,32,22,76,57,0
0.0008372881578582346,0.0025277914621491698,0.12188876944876773,0.33481030925604816,34,30,75,57,0
0.000823987088059494,0.002734817200041267,0.13583961799236913,0.34168537939826266,36,26,75,54,0
0.0008536266477638317,0.0027732082273058917,0.1316842903281378,0.3130339258392958,36,26,72,51,0
0.0007351921574948834,0.002791746251943038,0.12793116512739122,0.32037372483965276,32,30,77,49,0
0.0007067747908511908,0.0030816913270617957,0.1251871001798557,0.34635287755784916,36,32,82,45,0
0.0006361368465421889,0.0031380644198773693,0.10546118526780945,0.31994224368466906,30,28,82,51,0
0.0007555014135389868,0.003215989535741111,0.11680637482648384,0.338481580263113,30,28,80,58,0
0.0033923215053605215,0.002015267607727939,0.33543824443630943,0.29799924333797917,18,28,43,65,1
0.0033076975074363625,0.0020774515477985146,0.3130540788712654,0.3068937623977724,18,28,46,70,1
0.0028539656121656536,0.0023101447350453302,0.28080953348865656,0.3151238294268161,24,26,52,70,1
0.0028532214804941037,0.002379173249703773,0.2966172056081465,0.33688083347766845,22,28,58,76,1
0.0027985469989724775,0.0023334746578077465,0.2869047047259544,0.3260634201111205,28,32,62,78,1
0.00269215612658952,0.0022132976794547806,0.29581250453676355,0.31832677323847636,22,26,63,70,1
0.003241897893632338,0.0020671926267789766,0.3229623540312559,0.27554031912624055,16,28,60,67,1
0.00447239048624427,0.0018457110213581816,0.357743281242654,0.2665832087378303,20,30,52,73,1
0.004780370857290729,0.0023348124148248697,0.3864935492278221,0.3428245894216547,16,22,49,70,1
0.005029926102594148,0.0028452690584668673,0.4190880886019863,0.39175470110866206,18,22,50,73,1
0.005078143179343017,0.003300104457641036,0.39905340008225676,0.4571114567252976,14,26,49,71,1
0.004200917975513453,0.0030031855095659582,0.3614134511946651,0.42355097042929685,20,26,52,72,1
0.0038231594269038955,0.0023369642872781075,0.355174506755898,0.362772364581621,20,28,55,72,1
0.0035746008315824507,0.002201812869567428,0.3371557971714794,0.34503063879658596,26,32,54,73,1
0.003044176835772138,0.0019839221869047143,0.3295480550528553,0.3005359356832999,28,34,59,69,1
0.0029118762213534667,0.002045853537686241,0.32692951407453463,0.3162227678052497,24,36,60,67,1
0.003183468850937588,0.0021649495813259013,0.35284331644079325,0.32767486465342277,24,36,54,68,1
0.0035304235502036083,0.0022105376865016284,0.36221459492339164,0.34619722832748345,26,30,59,65,1
0.0037861217938928967,0.0022296601646148396,0.3747463822155017,0.3499764926744414,24,28,58,67,1
0.0039409102773992335,0.002372453631635753,0.38665411119934745,0.3650794318488381,24,34,52,71,1
0.003917980822561981,0.0023313376008612923,0.3992479242374966,0.3426972521982783,26,36,52,77,1
0.0037149526904944885,0.002133426600199802,0.36570903988342346,0.3039788866949332,20,32,49,80,1
0.003839855327251437,0.002142863165055105,0.3730062880324993,0.289482847787822,20,32,45,83,1
0.003872690267058795,0.0019698213590217907,0.3479704835777335,0.2731545968594864,20,32,42,86,1
0.0038396339470032365,0.00212089422090401,0.3437793999483992,0.3113717772880171,24,38,47,78,1
0.003741658244846624,0.002311419499047402,0.3401243646869405,0.3291750696635158,20,36,48,81,1
0.003939242235132629,0.0022638719292574928,0.330462695366451,0.34620536632443116,22,32,50,78,1
0.00334434683552149,0.0025133912880548276,0.314626847914401,0.3678684029312074,24,26,55,81,1
0.0033784851149395974,0.002120124676173463,0.29106451439830455,0.3269138332832884,22,26,60,81,1
0.00377648485064791,0.0021309579067784654,0.32151321334568167,0.3217427589859505,22,24,53,78,1
0.003641422639823505,0.0020407525608023415,0.31596689993693194,0.3153323311974384,26,24,52,71,1
0.003814548482990306,0.002141946937581403,0.3480155511036729,0.3008863332315748,28,26,52,64,1
0.003515464350559986,0.002049055686952898,0.3295092958584947,0.30978886322944904,20,32,50,62,1
0.00419413642743161,0.0018594650642865837,0.3851457124668752,0.2736092556872277,22,26,48,72,1
0.004381226064387596,0.002026982156041926,0.40789215451262073,0.26358195813557944,24,28,55,71,1
0.003934426695423732,0.0018103579612779158,0.36200926634378083,0.25395897968209696,16,26,51,74,1
0.003704281841456882,0.0017286854734603887,0.35000891967528386,0.2490724482386702,18,24,47,74,1
0.0026856324708402594,0.001745557198736497,0.2748895333030383,0.267165141056383,22,22,61,77,1
0.00320160491044604,0.001665666778492353,0.27295573767586706,0.2664058387475143,17,20,58,76,1
0.0033939013336168294,0.001633420697767742,0.29171123245175323,0.2636485604854482,20,24,53,79,1
0.0034253308812462603,0.0015659979759961458,0.2800915593749149,0.24877603366088366,20,22,54,72,1
0.003847415689550972,0.0016115892381824344,0.30749880276597097,0.24391397922187083,12,24,55,78,1
0.0035311798111865933,0.0016160658038374687,0.29836878435337955,0.23204899967098738,14,22,55,73,1
0.0034952834439034245,0.0017224577798763568,0.30317505303746234,0.25314096733166647,14,26,57,72,1
0.0035600246059274195,0.001728468137193687,0.2946998778340243,0.2632738467193305,10,30,54,70,1
0.0033040403741401176,0.0021653191084958882,0.28415919318322996,0.2917040232409915,14,28,49,67,1
0.0029251924240164097,0.0021418496734476396,0.2785281716233547,0.3033933000656283,22,30,48,61,1
0.0030576040908070483,0.001819728073494985,0.28530966334891583,0.268953153772787,20,28,46,70,1
0.002855074953145908,0.0019072266117807146,0.2674463131359748,0.24786125457320354,22,28,51,72,1
0.0008019300223736404,0.0004634637376425108,0.10800232883910568,0.06070080232162074,30,32,73,88,2
0.0007839271386810372,0.0003972585190401873,0.11337241003996673,0.05533292665025048,36,36,69,87,2
0.000865345010537914,0.0003829677601722124,0.11848002196009176,0.05553315453675382,30,40,64,84,2
0.0008718363366651799,0.0003701213235876293,0.11155918395974183,0.052908699896980854,32,38,64,80,2
0.0007549442257654037,0.000378449209024097,0.10723376002243186,0.05577714817515691,30,34,69,81,2
0.0007172463044231877,0.0003816956922141039,0.09367220891737842,0.0511015328070622,28,30,76,82,2
0.0006262670490722246,0.0003344329434241145,0.09234179902002042,0.04847195172519475,34,32,76,89,2
0.0006326667590626323,0.0003595121161205527,0.0930747722986843,0.049895691460414344,34,26,74,84,2
0.0006818418486187825,0.0003164597332284949,0.09300238857055394,0.04878219646286601,32,32,71,80,2
0.0011181561057984305,0.00046231690363410287,0.15627113496048328,0.062121286928701135,18,22,68,83,2
0.0014482751604673705,0.0004651132387558765,0.18268955844635398,0.06918517107534797,14,30,69,83,2
0.0018277225585942045,0.0005046994512138739,0.24576930870719038,0.08092015489791997,22,36,68,94,2
0.002286409100633924,0.0004562952460231479,0.3001138231166753,0.08780193679294175,28,42,64,99,2
0.0020769642211584793,0.0004540567799882717,0.2934783616293796,0.08987861683601847,28,46,68,101,2
0.00207789353487864,0.0004793837163747204,0.31407892436604634,0.0919678661385104,32,52,70,98,2
0.0020975495085383787,0.00046811392710078496,0.30835460093756567,0.08686638844073263,34,46,68,96,2
0.0019348078723538205,0.00045258719492501093,0.30892153332930844,0.08811367962085365,36,46,71,90,2
0.0018695457276932488,0.0004302874532769102,0.28251741768607375,0.08225539496893657,32,44,68,89,2
0.0018529892868007663,0.0004103010476134928,0.2720423632350872,0.07597052231706232,28,46,66,87,2
0.0018046221900483857,0.00043582332231988867,0.26268352341923884,0.0799978838943576,30,42,62,81,2
0.0016607813075771968,0.0003906652283788229,0.25025814912759414,0.07602114976085635,34,44,62,89,2
0.0017247884232675101,0.00038487500255256923,0.2612572231649115,0.07195982458317074,32,40,62,84,2
0.0016250584974613286,0.00039590220758555406,0.25236251650930525,0.07470246067839244,28,40,64,88,2
0.0015169059365195497,0.00037838596198021295,0.24445556770849425,0.07212950490634414,32,46,62,89,2
0.0013804451733702922,0.0003833975294333618,0.2278383061373255,0.06827552556176751,32,42,61,80,2
0.0013090522354759742,0.00037589996793174594,0.2223546932543188,0.07123326783976348,38,40,66,86,2
0.0012114353628178839,0.00035517566355246227,0.2091516627383716,0.06627559536948108,42,44,70,79,2
0.001208681417744256,0.0003492178283219588,0.19211680239270698,0.05980389715096667,40,42,73,83,2
0.0012465782424268294,0.00034361292537948336,0.18980104928927613,0.060882560487930996,30,40,74,88,2
0.0012276592823584763,0.00032407576253048575,0.17675437658237322,0.055288385692306985,32,42,78,84,2
0.001223711865739103,0.00040151350270229265,0.19062871773186707,0.062099095736914314,28,32,78,79,2
0.0011947961061746226,0.00041125889589536073,0.19730484535773243,0.06199480092528272,34,36,75,77,2
0.0012072102357034522,0.0004047841106414712,0.20289280581416227,0.05908530686950256,40,28,81,76,2
0.0014780147220301637,0.00040074187426598776,0.2128539214294997,0.056938498055609396,34,26,76,82,2
0.001267768131837334,0.0003098931909051889,0.20883657432289662,0.053541524493114605,38,38,74,89,2
0.001319577447387344,0.0003481626265667534,0.21169963049164667,0.05719254371682952,32,42,71,87,2
0.001266181326294748,0.00035562734348681344,0.19436723141182974,0.0626775680049383,32,36,76,89,2
0.0012277785041905518,0.00039335067966857207,0.1845245063398006,0.06585312988059468,30,36,77,82,2
0.0011942342502417615,0.00040119210593520015,0.17054686944690756,0.06400212055900154,34,36,73,77,2
0.0011513113357058862,0.0004084054042104702,0.15968211771626245,0.06279092768785215,26,34,75,79,2
0.0010656361652884284,0.0003916503824472044,0.16257518875838464,0.05624254041128682,30,28,64,79,2
0.0010358098862976264,0.0003583593269384848,0.15088804253365826,0.054089413232601594,26,26,59,84,2
0.0010871092829294474,0.00036602777968638414,0.1623131173968763,0.053271450652654574,26,32,61,88,2
0.0011139245351154711,0.0003534767501492632,0.16672690621007463,0.04798037003641939,30,24,54,84,2
0.0012254436304920257,0.00033900855306408245,0.17859704275107774,0.053093022481617944,32,36,61,84,2
0.00128910408491974,0.000336038464049567,0.19253200120825664,0.05306864866211362,28,38,64,82,2
0.0011537038463193842,0.00035217106726032613,0.18768747387613452,0.056594175851654,28,32,74,83,2
0.0011769442483415833,0.0003773152322562,0.185828580904589,0.057872044904175544,32,32,70,80,2
0.0011759732309668807,0.0003638374326086059,0.1829653251910662,0.058373282691399075,26,34,74,73,2
0.0004421677770192759,0.005357783226520347,0.07136690554195732,0.7835068839290554,30,30,75,61,3
0.00046992387786446506,0.0055150178067346475,0.07123447812507579,0.7999224043001222,30,32,77,69,3
0.0004066267869589402,0.005036997285420041,0.06418139919381408,0.7565090025426915,34,34,75,67,3
0.000443590194429183,0.0051081247332824264,0.06561859878398335,0.7808703232080105,32,36,70,72,3
0.0004019195551045423,0.00486476347820725,0.06054238311483306,0.767874592491757,32,42,70,75,3
0.00038170293263102133,0.00458344074210363,0.06152631381853466,0.7474732526485159,34,42,74,76,3
0.000390883265421497,0.004251722137294595,0.06125694556515011,0.6749814031372194,36,38,77,81,3
0.000354174221254905,0.004166023773490237,0.058972877641261474,0.6584303939874341,34,36,73,75,3
0.0003551371260015194,0.003753895531455585,0.06156392783136949,0.603435377782731,38,34,75,77,3
0.0004304414721633089,0.0030704000001346233,0.04973972155526794,0.4289917664087133,22,28,68,62,3
0.0003842505414135789,0.0025285559267312434,0.03992607802719768,0.3242007299827985,18,22,59,44,3
0.0003292013063353065,0.0014020963146429016,0.026912291734538886,0.154913706370465,10,10,51,42,3
0.00013375168656271045,0.00010210088589651542,0.007941167280166372,0.0075048873625345085,16,17,55,57,3
0.00013466211755317072,0.00010919793086080581,0.007782656389095165,0.007950341865336203,18,16,45,54,3
0.0001336487301633174,0.00011418377453347649,0.007832227742045745,0.008649534840642056,18,17,46,56,3
0.00015846938613382465,0.0004696803230399136,0.011480167463915569,0.04451559021736163,20,6,48,50,3
0.00027198268168568884,0.0013108709722747483,0.02178583235675582,0.12011866855268555,15,14,51,44,3
0.0002931117854848504,0.0020924660034484645,0.03150628444085366,0.23155098024886372,16,22,55,58,3
0.0003977252768154156,0.003505670373821272,0.045389738689778844,0.4217422052927267,26,26,57,59,3
0.0004371846485221238,0.004180096110786723,0.05188477425033168,0.5281190826728349,24,30,61,60,3
0.0003858750868967625,0.004548945792566635,0.054111691320011514,0.621989394927874,26,36,71,59,3
0.0004571866101080068,0.005011257099825923,0.05949887280297757,0.6755850922522166,24,32,66,63,3
0.0004592440808417423,0.004800889939239017,0.06209309445674246,0.6610402593700254,28,28,69,66,3
0.0004952214769493108,0.004872362606951154,0.06486713919937201,0.6814675400586752,34,36,71,64,3
0.0005157106142031453,0.004823635268811066,0.0703446818019393,0.6643246363212889,32,30,71,71,3
0.0004996844749048648,0.005236108596680336,0.07453059312605176,0.684363410903362,36,30,75,67,3
0.00047459265912660933,0.004635868141995764,0.07400206935442863,0.6764908129390808,40,30,77,71,3
0.0004867357140264067,0.004696128317967465,0.07657696412439789,0.7329774476168153,42,34,75,70,3
0.00047466780487779334,0.004712563533358639,0.0776998409616033,0.7859116794720202,32,42,77,71,3
0.00047112486267944184,0.00485536105609078,0.07479565716896903,0.7588000416299876,32,36,77,69,3
0.0005121556362272197,0.004912600014002539,0.07544161918004204,0.7077815267158247,38,36,70,68,3
0.0005030616780384418,0.004521388449317102,0.07295897814518415,0.6530408474747146,36,36,76,70,3
0.000526514441321893,0.004836571610364778,0.07484785396238425,0.7072393370906158,36,32,75,68,3
0.0005527778780070693,0.004966425072510382,0.07742942207816438,0.7239221387718944,38,30,76,78,3
0.0005411726919053927,0.0058380920035673925,0.07601765363510785,0.7993044853158662,42,32,71,75,3
0.0005497820106780774,0.0065135794461918806,0.0774727276252224,0.841303251138839,38,30,72,75,3
0.0005299879628028377,0.006129024502250166,0.07502536055501709,0.7848041821011109,40,26,72,67,3
0.0005899376144054121,0.006833737324857045,0.07403588651798351,0.8704960814100542,34,32,71,59,3
0.0005671938264810558,0.00678952460017942,0.07380266634714054,0.9032961730809339,36,36,68,64,3
0.0005474581218288913,0.006826202034143095,0.07832481830954865,0.9235371078168082,30,32,66,65,3
0.0005541513163267839,0.006198732379298416,0.07418858894867328,0.9279152952916699,28,34,66,69,3
0.0005519250185621532,0.005514110177767698,0.07101277979653822,0.8276215981223157,34,32,72,65,3
0.0004766402308382564,0.004701714519171929,0.06564336513836327,0.7497210781608818,31,32,62,68,3
0.000514922034734683,0.006179935462916658,0.05975583989268273,0.774064186074991,22,28,60,66,3
0.0004699193229055686,0.005805610306319807,0.05873701328021881,0.7711642675243825,28,26,62,61,3
0.00046485876806749807,0.006073779722950746,0.061215904893446235,0.8060099761404355,24,26,67,62,3
0.00046593120407489077,0.006087736716589369,0.06381177364899934,0.7808749997067853,28,26,72,61,3
0.0004917856630343231,0.005846246157542741,0.06438038461684296,0.687528924894312,26,26,75,63,3
0.00048009151870124345,0.005858426726476719,0.06318148651658625,0.6767848717170696,26,24,69,64,3
0.00017720147288124,0.0003381596649596285,0.01791081995824967,0.03566205578383353,20,18,55,59,4
0.00018358353157025778,0.0003126188616606327,0.019741879441475457,0.0333320169431495,23,22,61,59,4
0.0001618727694195342,0.0003037622800060426,0.018842071337046167,0.030775018586949338,32,20,65,65,4
0.00017522789919096116,0.000341029267309217,0.01899088573440532,0.03085132801047275,30,14,61,61,4
0.00016712155638116965,0.00031455715102244117,0.01770352403831329,0.030013168499440888,26,16,66,64,4
0.00016197036536515685,0.00031364459031993494,0.0182563076544563,0.030673238969018846,23,15,62,62,4
0.00016221166597502566,0.00029857739086205335,0.01765289731337147,0.030189712144365412,22,16,62,57,4
0.00016799838950487002,0.00034939477124452896,0.017488720717223606,0.03217636659415041,26,13,58,58,4
0.00016995463155985294,0.00037563497105184295,0.018340674684445866,0.034335507024731954,20,12,63,50,4
0.00014999616239410032,0.0003390185231089925,0.016155986402730697,0.031363046230685254,27,18,69,57,4
0.00015140871604981442,0.00033109521159880326,0.01635601129283109,0.030793773387648427,24,16,62,60,4
0.00015028817698617547,0.00030649200085373186,0.016065371039770817,0.027912430539940122,17,22,68,60,4
0.00015094467109145373,0.0002758555000253358,0.014770217073122184,0.024993447863641834,20,24,61,65,4
0.0001522689537653204,0.0002758820151434575,0.01564229399983143,0.026093011892101742,23,24,55,57,4
0.0001478107724101481,0.0003007932734295871,0.01498276175281225,0.026318662369822603,18,26,60,60,4
0.00013700322028128108,0.00027810516741553706,0.01482029714404285,0.02839302870499705,27,32,67,67,4
0.00013849456924843164,0.0003221931750224835,0.015450287761729012,0.03022229750427546,20,24,67,64,4
0.00013841785363439245,0.00033314180207995726,0.014706703726920508,0.032380942063155504,22,24,68,71,4
0.00016795188207576882,0.000541542049707106,0.016802775192007915,0.04721459134560067,22,18,63,65,4
0.000340419041195379,0.0009360173086573082,0.028134932931791493,0.06608650390514532,9,12,69,61,4
0.00036373745466139674,0.0009508418611139761,0.02788632912036016,0.06625048452825072,10,14,64,62,4
0.00035158372255262416,0.0007228131791670019,0.0261708264991618,0.05950446728072915,12,14,51,62,4
0.0002971790672070154,0.0006608090845715868,0.02302418918934621,0.053485017141591186,8,9,52,66,4
0.00011400492413320062,0.00031376606125626194,0.010358544251365957,0.03276283959172289,24,18,58,72,4
0.00011118931589038729,0.000293642368368725,0.010407728717713761,0.03466062089262934,20,22,52,69,4
0.00010638843938819869,0.00027745679478336676,0.00985678956705833,0.03480934938407537,22,18,54,73,4
0.00011083156306441735,0.00024493005391266044,0.009694267309497148,0.031069046427712195,20,29,54,68,4
0.00010115087455232805,0.00023854241741239846,0.008279935390026359,0.0278130699536281,16,18,56,68,4
9.801840696808481e-05,0.00018605192409950721,0.00746138175704084,0.021018971581510372,24,18,56,74,4
9.316223748306865e-05,0.0001620349173745367,0.006815098394811701,0.01610145271813577,18,26,64,75,4
8.685472831384388e-05,0.00015288592161472189,0.006344234376691586,0.013670863345603542,20,27,62,62,4
8.755850813540968e-05,0.00017781130818247777,0.006505459528846968,0.01657614767165114,24,22,68,66,4
8.569551513266835e-05,0.0001755088458831264,0.0063641839474160265,0.015637227858496784,22,13,68,62,4
8.772033059851423e-05,0.0001385694376338366,0.006355703111671406,0.013771600221288484,22,20,66,69,4
8.792280992678954e-05,0.00015051602787197847,0.006336069098505751,0.01472272146610505,22,21,66,74,4
8.931557929047188e-05,0.00014271612701635567,0.0062133821091799055,0.014369544494393451,27,22,60,70,4
9.21246740578073e-05,0.00015422940599925478,0.0062276537134683145,0.014949900547019671,20,24,56,70,4
9.538611768213019e-05,0.0001450558451435819,0.0061997302790933765,0.015510225605225242,25,24,54,73,4
9.234633198592657e-05,0.00013836436068826016,0.006274677158143748,0.014142162673614614,16,23,54,71,4
9.176286809158496e-05,0.00014846945020545186,0.006186542753572571,0.012992559735916988,22,16,48,67,4
9.249850288238658e-05,0.0001451923496161559,0.006101451935044509,0.014293582928705806,22,24,50,65,4
9.047277523400454e-05,0.0001658257370760256,0.005948269603510695,0.014862641090452391,25,16,56,58,4
9.141312360086342e-05,0.00016001188651411897,0.0061489958593089825,0.015579232170584626,22,18,56,60,4
9.068547891583645e-05,0.00015509465258825537,0.005966543094703035,0.01404714132483051,23,16,66,63,4
9.29910593525232e-05,0.0001349609141379913,0.006162768029545589,0.01401172706194169,22,22,58,69,4
9.049054005702462e-05,0.00013511321839046732,0.0062933400610978045,0.01267829022542925,27,28,62,72,4
9.002223062855804e-05,0.00014511760788954073,0.006247336382913413,0.013555143514813009,20,28,60,70,4
9.412748646523221e-05,0.00014720147592621471,0.006258517959169958,0.014418887010865019,21,24,54,71,4
9.582703101652868e-05,0.00017602962035837789,0.006400683166040623,0.013811004219723871,22,17,56,70,4
0.000219870506680637,0.0005431094535836855,0.030222752839886798,0.06092630599274831,26,26,59,62,0
0.00022475257800754446,0.0004425209978108217,0.03141847578604678,0.05838728195373257,30,36,60,66,0
0.00021466898977696284,0.0004309980314031441,0.03109794397824535,0.06195841040131846,32,36,62,64,0
0.0001969093549752674,0.00045618326950958515,0.029609216361645804,0.060114708939315364,30,38,66,62,0
0.00017058458299923547,0.0004620097196560526,0.025515580704807216,0.05838969685301388,38,36,70,65,0
0.00015179157172998226,0.0004442824657436098,0.021048185196802394,0.058686181659003335,34,32,70,68,0
0.00021299370632222342,0.0008438665795408187,0.028979835686458132,0.09890809367566594,30,16,69,64,0
0.0006058251871720786,0.0012729141516530562,0.058464493542177566,0.16560905745823232,12,14,64,64,0
0.0008047097527630003,0.0019647104439948714,0.08197283367033309,0.215638407447475,18,24,63,66,0
0.0011074494109675579,0.0029195020053427874,0.10783688720017116,0.31745423444661525,20,20,71,64,0
0.0013880687810558937,0.0042314341261970026,0.13671181491693046,0.4327644873497253,20,18,72,54,0
0.0012436841302612563,0.004682546127569336,0.1444922899201388,0.5232963766904143,24,22,73,59,0
0.0013102409248240971,0.004990190385587093,0.15438083069412445,0.5745840217394648,26,20,74,59,0
0.001216674652589375,0.004944146329027491,0.16366523680982245,0.5884762737812762,32,28,75,57,0
0.0011306489683777072,0.004346659126816571,0.15647793144001057,0.5417005132583099,28,32,73,56,0
0.0010986694954404125,0.00433895443373095,0.1560262613444276,0.5060319142691331,34,32,70,53,0
0.0010659697464214472,0.004217245254051438,0.15267002149896533,0.4812517074003062,30,30,70,46,0
0.0009508022939848714,0.0043517448379244575,0.14987019740979976,0.5253329686357369,34,28,69,45,0
0.000952838531997131,0.003924308160687886,0.15260239599542672,0.48904923716586757,38,28,70,48,0
0.000905933405871763,0.0038723913982763097,0.1489161355837007,0.4658365912487268,38,26,64,49,0
0.000920261558084575,0.0037095103916851215,0.1475415339553002,0.49773211842337445,38,26,70,55,0
0.0009370986161717054,0.0034894067831234927,0.14576177905109042,0.45173566752992456,34,22,73,53,0
0.001035111698349514,0.0039178761641831044,0.14958199641039222,0.48313963064548476,36,22,69,55,0
0.0010102610162696047,0.003965045291645438,0.15216436997919805,0.48346184111366247,38,22,73,56,0
0.003873147224957881,0.002224265267993637,0.3644769552205539,0.331692456700005,16,34,50,84,1
0.004097799784222757,0.0020268492164480876,0.3735833583054744,0.31786779266427,22,34,56,81,1
0.004141702834132861,0.0020348462762693875,0.3849023555453392,0.32389552621791284,20,32,62,81,1
0.00368746078552903,0.0027382906585855875,0.37041477992553545,0.3920337222162871,16,32,70,73,1
0.004198097407222862,0.0024860524921291307,0.44256772964388186,0.3921148824463935,20,32,54,72,1
0.004163746532776699,0.0024874874555222398,0.42023900639790374,0.39434852582620217,22,38,53,75,1
0.0039061396132750764,0.0024818951515017894,0.39421189795819955,0.38817152991504456,28,34,50,77,1
0.004258605906678041,0.00229858093858643,0.4076628462899108,0.35200799263031984,24,36,50,77,1
0.0034548997993427595,0.002290411092437699,0.3914133127739041,0.36271276177390993,22,32,62,70,1
0.003899959978828077,0.0025367625092600136,0.4052798178810893,0.4047635689486827,20,28,56,68,1
0.004157920843699089,0.0026109496238142186,0.43273609753079895,0.4045938880957665,24,28,57,65,1
0.0043170535800815465,0.002554005925505744,0.38999545026722926,0.3871609326421318,22,30,56,69,1
0.004101184712886424,0.0023962313041975035,0.36507407379406615,0.3710739265913937,22,26,52,73,1
0.004247824220010635,0.002133499329085232,0.37653693884989287,0.31306454163530223,24,26,51,74,1
0.003957480104401701,0.0018728774675365637,0.35213873627545583,0.27712471847573783,20,30,50,79,1
0.0034821239386722412,0.0020082058591497243,0.34602837306584,0.2935954235396842,26,24,54,73,1
0.0037654028017162725,0.0020466305361630972,0.3688525653158372,0.31253452029732065,22,28,51,72,1
0.0036578964704786043,0.0021958984097956167,0.37621168084600737,0.3269524417826579,22,28,50,68,1
0.00339221872880597,0.0021440862707369336,0.36117348375818853,0.3274965972659585,22,26,54,71,1
0.0036059191907900786,0.002297091198092838,0.3795025190208708,0.31608957028078816,24,28,56,79,1
0.0045729636973150176,0.002213401253181584,0.4415260921308226,0.31273428959991667,14,26,55,83,1
0.004374307223142452,0.0020512357187052977,0.4106599617421801,0.2957846653667332,16,28,51,83,1
0.004375911130102051,0.0021688850805947012,0.4153994479760809,0.32203431461298826,14,34,46,79,1
0.00465579164232279,0.0020116214415002017,0.4054762266312498,0.30609731471242535,18,34,38,74,1
0.0012584456768840206,0.00047388386500436954,0.1797362169364269,0.07823208050509878,38,36,69,76,2
0.0012858130276812776,0.0004207456651798677,0.17640937181003544,0.07578228025362073,28,40,72,82,2
0.001156392238243015,0.0003974863217874547,0.1603788601982473,0.07408688347333267,30,40,78,89,2
0.001069549838073892,0.0003876149440888429,0.1455133398411476,0.07415880826015742,28,44,71,97,2
0.001042145358886595,0.0004165568582248906,0.14098216341005,0.0744549108140864,26,40,79,96,2
0.0009464218903357912,0.0004156092068374751,0.1305203555834543,0.07223870235418206,34,40,71,100,2
0.0009688379222175487,0.00042960293987495484,0.1366973863690353,0.06974785552016191,30,40,74,93,2
0.0009036721178838487,0.0004287229873106759,0.13063946465467355,0.06371248690500843,26,34,73,85,2
0.0008338049255043224,0.0003928250429337054,0.12262497597128164,0.05875809197169876,32,34,73,83,2
0.0007969757663733896,0.00041421671037571536,0.12420892169812926,0.05452818552449865,32,32,73,81,2
0.0007848514320791436,0.00037285845908006135,0.12248538454887276,0.053578127290583415,30,33,70,75,2
0.0007773521649914198,0.00036250251292434824,0.11013815569066236,0.0547752827940012,32,32,71,77,2
0.0008465607289965997,0.00035861166529237696,0.11290557851298814,0.0539358377285423,28,31,68,79,2
0.0008587270597158752,0.0003396565428213697,0.11073510691151058,0.056692559415136616,28,32,66,77,2
0.0007698586866037117,0.0003629984888800337,0.10334565219754878,0.061221897160344166,28,42,70,78,2
0.0009181867320428533,0.0003696837604193704,0.11099886220175022,0.058722470108702345,32,38,67,82,2
0.0009140986296320431,0.00036805118870424596,0.11433674775579182,0.05870254313365551,24,46,60,79,2
0.0009044578446802567,0.0004148438027677041,0.11361234561698243,0.0618880495003847,28,38,66,82,2
0.0008775232625261412,0.00037994817003350606,0.1153634572961706,0.05430376292813226,28,40,68,83,2
0.0007816056420265307,0.00040778200852969613,0.11344922901538444,0.059037326302161915,30,34,72,76,2
0.0007112429077586185,0.0004141499582822483,0.10332953059976469,0.060344818637756946,34,34,72,74,2
0.0007513312566879518,0.00049209989736224,0.10112535333212933,0.06471280252814822,28,32,70,73,2
0.000716408223513779,0.0005109249221956547,0.09614650715697114,0.06678694364936846,36,32,73,78,2
0.0007004403782106059,0.0004510704432239207,0.09916472879390338,0.06489289367190229,32,36,72,86,2
0.0005229986664686387,0.0051025121511366475,0.07858694922346621,0.761719290178161,42,32,67,65,3
0.0005527469509523753,0.005061664319093322,0.07686565859544296,0.7093346808919534,34,34,73,66,3
0.0005214574031725549,0.004433105409437837,0.0710006016106915,0.6175280946412656,36,36,72,67,3
0.0005087975474287011,0.004185750460955386,0.06713414905262592,0.5830637124554985,28,28,75,69,3
0.0004879953091974827,0.004594862465905019,0.062316278092538424,0.6035843760045707,30,30,76,71,3
0.0004619394723674732,0.0049418252235537904,0.061540412872551,0.6803276100592645,26,32,72,71,3
0.0005109806340002546,0.005872880187295471,0.06606282526016673,0.7059953585516583,30,28,73,71,3
0.000502476078936526,0.005651275746963026,0.07179206431507684,0.739189620430959,32,28,69,64,3
0.0005128112880226906,0.005558008608986146,0.07065986112326456,0.7088723127469173,32,28,69,61,3
0.00048255911531439337,0.005205288169048382,0.0718818234863579,0.7274506925308135,30,26,74,62,3
0.0004702841513806822,0.005521426873184236,0.06777459766333642,0.7584210867548685,30,32,69,61,3
0.0004439085719220427,0.005451909377268692,0.06642872928978656,0.7930174790521126,30,34,71,62,3
0.0004106653597938689,0.005379935915494301,0.06209640717882905,0.7835148283374195,36,34,71,65,3
0.0004444054023444022,0.0052557384031550304,0.05982604250483774,0.7280094250586153,30,38,63,67,3
0.0004276418909634154,0.005355393224502153,0.06577576676635292,0.7802403116501097,36,28,68,71,3
0.00047407545249718075,0.0050952084806304195,0.06686549386425032,0.7474544333193699,32,32,68,70,3
0.00048631881080987184,0.005338360521039245,0.07157854032870373,0.8021899663953564,38,36,70,73,3
0.0004937862398134949,0.005220643355761561,0.07473588849815103,0.8220233285707738,34,34,73,73,3
0.0005652584394547585,0.005919020755838669,0.07749362769498643,0.8439779975801519,34,34,74,69,3
0.0005290793235171825,0.005966596601197758,0.07741882352870577,0.8408567354049499,28,28,76,64,3
0.000537270041519435,0.005624308694069042,0.07392633107736597,0.805750758268992,32,28,76,69,3
0.0005058163555369919,0.005802827175643614,0.07556073595026247,0.8503502621224295,30,26,74,61,3
0.0004888708213833145,0.005384405961165845,0.07234596673184815,0.8042177498621655,32,34,77,63,3
0.0004575649289928545,0.005018467050373193,0.06897463979971669,0.7835815607885236,30,30,77,69,3
0.00026854065480274734,0.0005729663767248641,0.033618575031037455,0.06896096232485298,30,30,65,70,4
0.0002909395019530372,0.0005726056548084602,0.0358616507943861,0.07372487819757008,34,24,60,74,4
0.00031690789898059424,0.000581696758966665,0.038605077205163665,0.07139151024298586,34,28,63,73,4
0.00030307393689395185,0.0005798521351844225,0.03693524978650065,0.0692685676865262,30,26,63,74,4
0.00033575731657856794,0.0006587414539991057,0.039900879952455594,0.07366298666693558,24,30,60,72,4
0.00029882645274719886,0.0006146671599964093,0.03850755529347995,0.07264902473630117,30,24,62,66,4
0.0003402456874750061,0.0006074882690303548,0.03795342515834018,0.07458525150318837,28,24,59,67,4
0.0003296484963103418,0.0005950515335089307,0.03990423649933589,0.07612316084596582,28,24,60,77,4
0.00031123852399117844,0.0005977080600469409,0.03709803648115506,0.07571526326796206,32,20,58,76,4
0.00031136469126486003,0.0005388274613559276,0.03694185286111047,0.07057603161541327,30,22,62,81,4
0.00045714373732358426,0.0009732070893379723,0.039524392707421814,0.08861182668029548,15,15,67,72,4
0.00043763572949439276,0.0009856122184874311,0.03928873959001031,0.09047831167318696,18,16,60,68,4
0.0009328588213641654,0.0018409507495184105,0.06073933640711388,0.12046493202510145,12,6,69,76,4
0.0009432234692766613,0.0018686516420574797,0.056322159053598754,0.11806493092894822,8,6,69,71,4
0.0007682508304743264,0.0013868137476237801,0.04677501634115015,0.09058828600366776,12,6,62,62,4
0.00019669352924578978,0.0004342874244293566,0.020748047678164912,0.045088034604660536,20,20,65,64,4
0.00020193952899280843,0.000438236261331025,0.02119381633388937,0.04533313220877908,22,22,63,58,4
0.00020449936678329134,0.00042217395518079565,0.021571177900061515,0.045721669696632584,30,26,55,52,4
0.00019507136328106905,0.0004503218586178651,0.020066772970940026,0.045024696663424464,24,22,56,56,4
0.00018137883842880628,0.00042705913132365966,0.020036451971649015,0.04550046183099615,24,30,53,54,4
0.00016427089393783245,0.00041731885155979205,0.019272265118988437,0.04312903236181006,24,28,57,60,4
0.0001529550260893554,0.000430957165150248,0.016401580138068996,0.041525127840242704,21,28,64,62,4
0.00018551396690760877,0.00040998708104299946,0.018819917223970337,0.04038237262234727,24,28,54,63,4
0.00017422252558605016,0.000344371004419158,0.017707384065065414,0.036354397049514334,28,24,59,61,4
