f1ch1,f1ch2,f2ch1,f2ch2,f3ch1,f3ch2,f4ch1,f4ch2,Category
0.0006427396464365944,0.0007429076307680448,0.07738912607899075,0.08762558761011886,34,18,77,63,0
0.0006000391613804505,0.0006465321808337956,0.07831909613671581,0.08120793853564669,28,28,75,68,0
0.0006135522930413913,0.0005411423595601217,0.07877819800986008,0.07579105905268886,31,30,68,72,0
0.0005939894468842731,0.0005899876163761842,0.0794328765181685,0.07181880070490673,34,30,69,71,0
0.0005664501078699785,0.0005508666084535125,0.07439843911197082,0.06700987320233513,30,28,63,65,0
0.0005834247796218896,0.0005593689112290565,0.07679308142632114,0.06490432520711449,34,26,65,65,0
0.0005626687552222348,0.0005967651601954084,0.07849728243025542,0.06772105033695076,32,24,67,68,0
0.0005122295981889543,0.0005200198698582026,0.07239898717651934,0.062558603033263,32,22,68,66,0
0.0005324337522449059,0.0005398708831654771,0.078782481341692,0.06394439135389572,32,24,70,67,0
0.0005529804081377687,0.0005321874167521537,0.07308649805784091,0.06400491146205406,36,24,72,62,0
0.0005163790395520065,0.0005080354011036057,0.06775500840446184,0.06164601929506691,26,32,70,68,0
0.0005948131522493604,0.0005634981915901727,0.07372061076080834,0.07261062168873346,28,28,68,64,0
0.0005071535742610622,0.0006309771276165938,0.06720430633809142,0.0743785116126167,30,24,71,64,0
0.00047326989677589677,0.0005858483970441184,0.07056801987491022,0.07133315784682616,30,26,73,68,0
0.0004666601288361142,0.0006329237473831634,0.06974690103661856,0.07704132234007732,30,24,75,63,0
0.00044540023298064594,0.0005417678514024547,0.06641886964987283,0.06717591785157527,34,24,71,65,0
0.000481545871533736,0.00048282096745103195,0.06630277493811011,0.06409036680414412,32,30,65,64,0
0.0004486441070613892,0.0004999679828269786,0.06058073837084872,0.06229829478624469,30,30,70,62,0
0.00046891138008302877,0.00044764075852424446,0.059585851666539465,0.05452372889483748,32,30,67,63,0
0.00046540093943218795,0.0005020680357620073,0.05768285305377823,0.05723081350527989,28,26,72,70,0
0.00048808539942089244,0.0004631575948217861,0.060373662402336076,0.05389835246376895,28,22,70,72,0
0.0004643375620863072,0.00045927265481617393,0.05714914318162178,0.054280626969224796,28,26,70,72,0
0.0004216358554975944,0.0004514165416640802,0.05508490274388687,0.05191985387803663,32,26,74,65,0
0.0003592986595940959,0.0004126900394663927,0.05067137354851846,0.048686425712699405,34,20,72,64,0
0.0003490303056592197,0.0004240865781786207,0.04659542140549246,0.05428574697937553,36,20,75,64,0
0.00030028116158755714,0.00042429234386940614,0.04396587566996334,0.05473676614432603,34,20,75,67,0
0.0003258824882885964,0.0004702095627010046,0.044872012339820216,0.055224484432428854,32,24,69,67,0
0.00033328357480577104,0.0004932562869717624,0.04370040600390364,0.05035729858687031,32,16,72,63,0
0.0003406067204288062,0.0004871459341209134,0.04301873845414487,0.04647707381236743,30,20,73,58,0
0.00035030680628356036,0.00045922029241652127,0.04425755765964131,0.04259162222113277,30,18,70,60,0
0.0003057071859420431,0.000422327278106404,0.04234902568695748,0.04673399480226364,32,22,80,64,0
0.00036537063678744965,0.0004214470041650963,0.045667863511989856,0.04737590605941395,28,20,75,61,0
0.0003347595199550534,0.00040165463783878823,0.04544741515421571,0.04714922109430702,28,20,75,72,0
0.0003636146304803509,0.0004074015439163489,0.04646353466394061,0.0491430267151992,34,24,70,70,0
0.00039096513644362507,0.00037238622183750924,0.04750737172587398,0.04398677651919461,32,30,70,74,0
0.0003775752750879162,0.0003589728237478643,0.04739404523475374,0.043222979711798594,32,26,77,66,0
0.00039455940468056087,0.00041648900071503695,0.0473825274390568,0.041916708244435406,34,28,79,72,0
0.0003722851690922174,0.0003835783388355066,0.04613077299450834,0.04177034769951066,36,28,82,68,0
0.0003813031463213385,0.0004013012555758315,0.04814761853346339,0.04411254877862818,28,28,78,62,0
0.0005226834856966248,0.0011092702086283768,0.06528467180305314,0.09056763304012766,26,6,80,57,0
0.0006363169678610878,0.0012422926918015504,0.0811475611304451,0.10392477886342967,26,12,73,57,0
0.0006862738894833283,0.001346946292901162,0.08996325789540816,0.11407129193038693,30,14,74,52,0
0.000673674010071349,0.0014662025064171786,0.09553091633032446,0.10983438067487462,30,20,69,53,0
0.0006950448952492066,0.0012952860361598814,0.09682463304046496,0.10563268556162504,34,20,67,61,0
0.0006582461262407451,0.001371164908106012,0.09120378610148502,0.11350991083950118,40,14,75,53,0
0.0007171757844698139,0.00173687685051681,0.09957348807495967,0.12157041592407754,38,14,74,49,0
0.000733320719072316,0.0018467555348817754,0.09618986355732678,0.12450412330559184,28,18,71,47,0
0.0007145397123341065,0.001610277970712127,0.09799211789174554,0.11930883002549242,34,20,75,52,0
0.0006752442764140158,0.000689912672394984,0.09214045364974038,0.07394790361148675,32,22,71,64,1
0.0006297481533302381,0.0006424928611297185,0.08746498906401248,0.07364188946721037,30,24,68,69,1
0.0006323734054889851,0.0006055888049978767,0.09508629794784125,0.06875344978770577,34,22,72,73,1
0.0007366957655522497,0.0006881921678752868,0.09757096741915021,0.07109253382989957,28,24,71,71,1
0.0007003475728403803,0.0007009254312601853,0.09855430147038094,0.07028610402300985,32,28,68,65,1
0.000755551159331087,0.0006788722046022662,0.09987553848273874,0.06960887505692126,30,30,64,67,1
0.0007597137870914458,0.0006506118226526977,0.0954690775553798,0.06752285972353486,26,22,72,67,1
0.0006903717257551932,0.0005722367698658792,0.09625101776947995,0.06213353407661393,32,22,76,67,1
0.0007488032296461793,0.0005361494829131394,0.09811751878033542,0.06218992958283669,28,34,70,72,1
0.0006576556112022448,0.0004928261509372585,0.09403855029210562,0.059859976177256226,24,28,68,74,1
0.000675479976585634,0.0004836580674241029,0.09483912300706111,0.060828051952198856,30,32,64,69,1
0.0006478242135130761,0.0005305433150726466,0.08703660984648906,0.06200353166283237,28,28,57,68,1
0.0006509857126556484,0.0004592976698984908,0.08390113496923124,0.06180499881845428,32,28,69,67,1
0.0006348319952496662,0.0005184127694309279,0.08650319933328167,0.059016987290783654,40,22,69,64,1
0.0005799697019491362,0.00053512830242796,0.07993895765461694,0.06166051010053116,38,20,78,68,1
0.0005938361485382009,0.0006509934223108614,0.08146582874931241,0.0612772639954736,36,20,78,65,1
0.0005827480550506705,0.000605453239388275,0.07632124730792447,0.06070904992536211,28,24,74,68,1
0.0005063979323597754,0.0006052721901078326,0.06793608739077583,0.0689218927045031,26,24,69,71,1
0.0005180427715172634,0.0005815205635696279,0.06906342622240917,0.0704807322844055,34,22,75,64,1
0.00044858307588328437,0.00048036969287229217,0.06711209877051069,0.06760354135057649,34,34,76,70,1
0.0004583094910996631,0.0005820177088001249,0.06832067379127982,0.06746541866308295,34,20,79,60,1
0.0004499028276077186,0.0005716943655324461,0.07116519968588618,0.06229093256934035,32,22,78,65,1
0.00045799314320388627,0.0006114003669537391,0.07009525202716431,0.060303345410531714,32,24,75,65,1
0.0005029154997575488,0.0005716624019860807,0.07197652174405839,0.061705145091486266,30,28,75,66,1
0.0005721502205353663,0.0006087021530179161,0.07598964421021098,0.0623646192863355,30,26,70,66,1
0.0006531645453004254,0.0005430392574770448,0.08562697713321944,0.056557396366860475,34,24,65,63,1
0.0007023250026797803,0.0004868229516910227,0.08740532234989842,0.05287524578688856,30,22,62,61,1
0.0006590657451404573,0.0004477799027462158,0.0850816928271897,0.04914407745585832,32,22,60,67,1
0.0006742817747466932,0.00042758800844674543,0.09215829638351573,0.0482659981233889,36,28,65,62,1
0.0005935674054172988,0.0004518079057161746,0.08292672070341083,0.055845059282727386,26,24,67,61,1
0.0006318444921339148,0.0004868279333118001,0.08180848260613752,0.0599645461784768,32,24,71,64,1
0.0006916359054438343,0.00048610034537709124,0.08662015685017081,0.061632785600659226,26,24,70,70,1
0.0005823888119042675,0.0005303696661246673,0.07403410688694155,0.0625823183124799,24,20,77,65,1
0.0006006017326999948,0.0004449383883836433,0.07306508019755059,0.05314163241367118,20,20,82,62,1
0.000637503269156469,0.0004360451293598369,0.07744299186320736,0.05104822939089781,20,26,76,67,1
0.0006054304197211382,0.0005114863802498083,0.07688120691324117,0.05128940541901995,22,22,74,64,1
0.0006920620124710636,0.0005304832017258111,0.08288360091571018,0.05584896408796157,24,18,70,63,1
0.0006867634896117658,0.0005758128135394859,0.08579085737997998,0.05794160242066851,24,20,76,65,1
0.0006522577189515884,0.0006475538063305891,0.09038654588386368,0.06016482495496086,30,18,76,59,1
0.0006382383378442036,0.0008537681916291683,0.08877553699884339,0.07221288315703593,38,14,75,64,1
0.0006735740947654049,0.000795433288262344,0.09301285986939127,0.06923105837096007,38,16,68,66,1
0.0006710729210347283,0.000769263747203704,0.09650996371087704,0.0672420334278095,32,22,70,67,1
0.0006124153459185597,0.0005107097041736704,0.08544983002505391,0.05514799054517334,26,24,68,65,1
0.0005997865899189784,0.000564903441168497,0.08351905769861621,0.057721642997521055,26,28,72,68,1
0.0005587245408244268,0.0005854076392514677,0.075227828672226,0.061750124076642245,30,26,71,61,1
0.0005964029124328369,0.0005565432922767592,0.07480088279582357,0.0625287335159408,32,30,69,63,1
0.0006325155978301154,0.0005685986464391128,0.08434366147638145,0.06239983508619326,36,24,68,70,1
0.0005874488413712351,0.0005583657611729555,0.08461724928384444,0.06411020505278935,40,28,75,64,1
0.00038310847001966626,0.0006370686185630727,0.04578018692415535,0.04669189011360753,22,20,79,46,2
0.0003473490452534392,0.0006239023738037894,0.044013364319670456,0.045188412139149606,20,20,78,49,2
0.0003596481012845297,0.0006066596571355961,0.04991674380522988,0.04220755079488042,20,16,78,51,2
0.00032260520904158515,0.0006207688321302146,0.04426233739460896,0.04556698995182899,26,26,80,52,2
0.00037658817747606305,0.0006514389627437154,0.04728280813303597,0.04896874939214517,24,22,74,51,2
0.0003800885965424895,0.0006069035124595631,0.05194477770653506,0.0492381944273461,28,22,73,45,2
0.0003741539287345906,0.0006363514409138938,0.04646314944230691,0.051409106289083704,30,24,71,42,2
0.0003669634351973153,0.0006640307519400052,0.04990230091792657,0.05332487378432387,30,22,74,42,2
0.00039010989040742566,0.0006642869893038556,0.05175314466758424,0.0526071117803918,32,18,71,35,2
0.000386298431628302,0.0006465521698480678,0.05124706358812445,0.0504788002077742,32,18,70,38,2
0.00039499656554724065,0.0007181706794028492,0.05549581122380247,0.052220659152689475,36,16,72,41,2
0.00035881472760755705,0.0006953371549353647,0.052596714586762766,0.05133008409759901,34,18,75,37,2
0.0003405185323109812,0.0006519935746212191,0.05019642299898662,0.047625021919928685,40,18,81,40,2
0.0003083863216152201,0.0006618978450912739,0.04744729216631168,0.05139656815296745,40,14,81,43,2
0.00033938498038851427,0.000610786210560252,0.04864900876671013,0.04939031530503809,38,18,80,46,2
0.00039812580613416776,0.0006262656088496768,0.05115856797483717,0.052497880214246666,34,20,77,43,2
0.00039643288306020515,0.0007035118982189843,0.05284401100557291,0.05914541443148067,38,22,79,44,2
0.0003960236121628067,0.0007175311974616434,0.05213433481700594,0.059089168706596654,26,22,72,47,2
0.0003857909566593921,0.0007279648612395094,0.050451774777215484,0.058280202784292995,34,20,73,44,2
0.0004285985289486956,0.0006667495965692337,0.054249751423705674,0.05343392967963699,32,14,68,44,2
0.00040295511079321784,0.0006783286814043535,0.05031174981549488,0.0538152152783849,30,16,62,42,2
0.0004044840403207039,0.0005930676508890335,0.05142836052311948,0.0486013699285235,30,18,65,53,2
0.00038814842520328095,0.0005389297422579224,0.05026465207878638,0.04407234798417303,34,20,75,61,2
0.00035099278073208733,0.0005211079607064179,0.047265742826267096,0.04268696090228417,36,14,76,58,2
0.0003662696278375022,0.0005237110109156162,0.0469454607743124,0.03880674307235314,34,18,74,59,2
0.0003550912739060716,0.0005064755529773458,0.04737422890826532,0.04166296747472984,32,16,73,50,2
0.0003305505424706456,0.0004916119350822042,0.04289730511292915,0.042486850241038925,28,14,68,50,2
0.00033963792556482097,0.00045013520695387434,0.043302210040467366,0.04050362384648847,32,21,68,50,2
0.0003356019996464805,0.0004885825574858388,0.04381958592566668,0.0424601177771797,28,16,66,50,2
0.00032424938887653284,0.0004758441860555237,0.04366835749164502,0.03992961513618602,38,18,64,54,2
0.000341398854031251,0.0005259827876245257,0.046547783194637454,0.04027962269737695,38,18,65,52,2
0.00036378755648828006,0.000540073155498071,0.04309456956883094,0.042855535666257126,30,19,65,48,2
0.0003703643589670033,0.0005970395169514642,0.043670256612207956,0.04711280504858343,32,24,69,41,2
0.0003624427796459624,0.0005986877092999768,0.040795762707323255,0.04985299800321208,30,25,72,40,2
0.00033649105717455,0.0005843960151225071,0.04064091663660472,0.052170071911518616,24,26,72,36,2
0.00028730003501441345,0.0005706049441832661,0.039838415127652356,0.050611520994506026,30,26,77,41,2
0.0002871520514626335,0.0005278703277203546,0.03970795150041983,0.048464616522769934,26,26,73,42,2
0.00029292892501172946,0.0005434628360077275,0.04060407177887263,0.04392775637917752,26,20,76,48,2
0.000307737896556241,0.00046507008212461607,0.03839707088973748,0.040186833869943255,28,24,75,59,2
0.0005421564227418471,0.0005479327683395688,0.04467992394243661,0.04085630491168257,16,18,66,50,2
0.0005483113387352981,0.000467205300217916,0.04109253702516173,0.03379028359612537,12,18,61,37,2
0.0005276690336393379,0.000428286288068414,0.039509988797039354,0.028555014577914085,10,12,59,45,2
0.00034594089012385097,0.0003124562351777187,0.03097843991136111,0.018659782911985633,16,16,56,44,2
0.0003660090860999428,0.00044218972250683404,0.03428316928960579,0.02480223332034067,22,12,60,46,2
0.0004268418735818334,0.0005022847210764686,0.03974461803527323,0.02785067561611682,20,12,64,47,2
0.0005017523420993006,0.0005507870010034023,0.04420623730334642,0.03292412067671311,20,14,69,51,2
0.0005599027099252252,0.0006741021501924769,0.05389566231215602,0.04221484212496216,16,18,67,40,2
0.0005934133049081723,0.0006272632542045952,0.06444761921979371,0.04253826379049774,26,14,65,43,2
0.00021513609748677199,0.0009549349570216823,0.03529746757785326,0.143589076154277,40,36,78,70,3
0.0001987715814138842,0.0011053918993276803,0.0319716925921965,0.14867024242618865,40,32,78,65,3
0.00019483748126766033,0.0009663783989906622,0.03181448354288126,0.13788144687301226,38,32,78,67,3
0.00020812692407419715,0.0009464095150722618,0.03220137713305127,0.12740803309901227,40,30,80,71,3
0.00021736104055862697,0.0008651190715576458,0.03365021053444595,0.11721210805610549,36,30,80,69,3
0.0002162660959899137,0.0008728355752962802,0.03445911766812262,0.11664040906771644,34,30,79,71,3
0.0001961650022204189,0.0008499559815011872,0.03418346589026947,0.10933177529972073,34,30,87,70,3
0.00024682709344691847,0.0009499869346120354,0.0388664087141129,0.12146646781205495,36,32,84,70,3
0.00022410749986321164,0.0009119819111376612,0.0395169722595825,0.1194985441463851,40,36,85,70,3
0.00023571626912547952,0.0008882247709872145,0.0398637493619975,0.11229829884078775,40,30,82,70,3
0.0002606361566726058,0.0009197946326527156,0.04068765612094877,0.13098914181004973,30,34,72,69,3
0.0002160651289626533,0.0009494001545893765,0.03551492789682863,0.12548214668724153,36,36,80,73,3
0.00022076781087542122,0.0009674576003255428,0.03516531332554812,0.1284000267686009,32,34,76,71,3
0.00022796782528680424,0.0009408106952838991,0.03641891456167584,0.13865825095165524,36,38,75,73,3
0.00023498100871228663,0.000860535062015315,0.035878375884972384,0.12286541485939664,36,34,76,69,3
0.00022692867852554268,0.0009333164133556558,0.036456481374143854,0.12368940444562371,34,30,82,74,3
0.00024222847623643198,0.0009719634439898864,0.037127887727343024,0.13211488790840756,38,26,77,73,3
0.00022533760153433302,0.00101509413939504,0.03761957778617232,0.11871991080449114,42,32,78,67,3
0.00023746265178869747,0.0009516768142953157,0.03719176632036468,0.12018281290322279,42,32,73,69,3
0.00021485842911277232,0.0008877731602104337,0.035904592396742915,0.12067338196006548,36,34,79,66,3
0.00020851188302855515,0.0008937664844256601,0.034348323659316136,0.11259917005052945,42,34,77,70,3
0.0002353933453636991,0.0007690833397304733,0.03484495962368534,0.11072639073048118,34,34,75,73,3
0.0002329521996295462,0.0007780649692527504,0.03476753151409361,0.10884592484139226,34,34,74,67,3
0.0002553295896086671,0.0008076428603190204,0.03584690471483425,0.1060517423562479,32,34,72,63,3
0.0002465189690450354,0.0007215805467580944,0.036148152231230274,0.09818475695882693,36,36,67,67,3
0.00023481872989181027,0.0008007913183739262,0.037239587695329444,0.10119916290872229,36,26,72,68,3
0.0002630659177477569,0.0009133254173507157,0.03805531326519907,0.11349423112573506,30,28,73,63,3
0.00028154370054365665,0.0008982877272362597,0.041743178404877644,0.12135337585200323,28,30,69,71,3
0.0002924643505881545,0.0008707072684450774,0.04088523645455087,0.12602931627794048,30,34,67,69,3
0.00026433196592581836,0.0009876182192229594,0.03795946500378361,0.13620889745440043,36,32,74,67,3
0.00022619280905586536,0.0009714865954229671,0.03453113444029039,0.12745864678073449,36,28,79,69,3
0.00020022904752334275,0.0008788713376248991,0.029591221153700227,0.1211853733966783,36,26,84,70,3
0.0002047364632403926,0.0008525000731953876,0.028573340788900822,0.11806014987405855,38,30,86,65,3
0.0002034295854290105,0.0008030280624708689,0.03103732749912814,0.10658532002869563,34,32,78,72,3
0.00021481124786457628,0.0007427001635881562,0.03142672548881577,0.10240853222568255,34,32,75,74,3
0.0002304493398053943,0.000852373619481318,0.0337610734050641,0.10315192573262573,30,30,70,70,3
0.0002372906893191194,0.0008180486336969726,0.03320570508439153,0.1038916245080848,32,30,75,72,3
0.00021950953840475503,0.000836451212460216,0.029377993245728908,0.09576121298106771,30,24,82,68,3
0.00021454070120488532,0.0008538567987188986,0.02912448687790973,0.09039460003362923,30,26,83,65,3
0.0005142732453831372,0.0020046321389328315,0.03716265468821147,0.14141114238288988,12,8,71,70,3
0.0005050547075307641,0.0018483246356957393,0.04055779275868045,0.1378454406913356,14,6,63,61,3
0.0005030838096753257,0.0020053274251177664,0.042429270028032116,0.16058275895280413,14,10,59,63,3
0.00022514553648828622,0.0010513477927053946,0.03240075084330948,0.13142473692447862,30,26,75,67,3
0.00022808039284125497,0.0009853858277334053,0.034356473267948925,0.12338041334561785,34,24,70,70,3
0.00022995183015334027,0.0008643308777190304,0.03350401652556381,0.11355129592222155,26,20,77,71,3
0.0002472409629785372,0.0008829660871209022,0.03632396239680611,0.10264037375795096,26,30,72,67,3
0.0002715467606910148,0.0008993152838671979,0.04069541839017351,0.11133601611356281,24,24,71,71,3
0.0002783850835780459,0.000861988083498574,0.04040091926574983,0.1088007154277391,28,26,67,75,3
3.703901258447882e-05,0.00016431045687649993,0.004705272462376962,0.01055255172286657,28,17,83,55,4
3.652647343613687e-05,0.00016242970950798062,0.004774226058871881,0.010207035892272306,26,16,89,55,4
3.2921022961769325e-05,0.00014655189477550854,0.004688565946331803,0.009752159211217788,30,20,87,59,4
3.0017014862915004e-05,0.00016300686576956714,0.004553108644382881,0.010248820114992686,35,18,87,56,4
3.2312225210877445e-05,0.00016395127338840527,0.004603179233831325,0.01039169688557014,36,18,91,59,4
3.183979788005407e-05,0.00014953692373414638,0.004352595930488818,0.010603981585005272,32,18,95,65,4
2.8918333001899615e-05,0.00015928668543648848,0.004259520314028233,0.010546193339784817,36,18,93,69,4
3.233633848297001e-05,0.00013754993991761894,0.004240044153951274,0.009383822662099972,35,16,91,62,4
3.128323532101689e-05,0.00014747465830949972,0.004037470211487167,0.009737689778170914,30,18,96,63,4
3.19521674655141e-05,0.00014792499684796134,0.004134723859964578,0.00993245336869931,33,16,96,57,4
3.03169284921336e-05,0.00014935769267012886,0.003895197346325056,0.009847394795991648,22,15,97,59,4
3.1040224973295846e-05,0.00014762120260645962,0.00388918393145662,0.009984246282888106,31,16,93,50,4
3.222384830690504e-05,0.0001607815767299531,0.003981004693188008,0.010108941398262216,16,20,89,58,4
3.458615160542953e-05,0.00015760050014743644,0.003875666892314461,0.010431236822637234,23,14,88,57,4
2.8534775781098847e-05,0.0001404506525693566,0.004111226572871751,0.010115392459796589,34,20,96,59,4
3.064994180651635e-05,0.00013702446371111136,0.004171030574971148,0.00948157618895793,24,14,90,65,4
3.009846934685146e-05,0.00013856830593830303,0.004175104587051621,0.008855323978020286,30,14,93,64,4
3.2144210844653425e-05,0.00014522989355299852,0.00417192771005102,0.008931329000429795,25,12,96,62,4
3.230295034853823e-05,0.00015846008877178083,0.0038084365913731706,0.009332233690909481,30,11,90,63,4
2.74104079789374e-05,0.00014792635642300138,0.0039055602886525756,0.009436744601313175,34,12,90,58,4
2.9643312843206033e-05,0.00014580021184250132,0.004020584879777648,0.010008453611028511,30,14,95,54,4
3.117605339400192e-05,0.00014199738506678013,0.004249940544988433,0.010191729206622245,33,20,85,59,4
3.208609318496505e-05,0.0001369279363619693,0.004466675415558825,0.00989864749519072,32,18,88,56,4
3.2261577769443205e-05,0.00012822236820317609,0.004185327506066673,0.009259910466492483,33,16,91,60,4
2.9753303755182714e-05,0.00013646316135441014,0.0040065343191494586,0.0091113756618347,32,22,95,61,4
2.4398464946201906e-05,0.00014536580395089024,0.0037006439449164016,0.009228290406062835,38,18,96,46,4
2.8113272605303748e-05,0.00013817911339674658,0.003706569572985891,0.009422854605302313,32,18,97,58,4
0.00021803286670678179,0.0009748253074190249,0.013385173348801502,0.0522695879435221,4,6,62,66,4
0.0003839979544074195,0.0016020141580243006,0.021743424829235785,0.08666894534374917,9,4,34,68,4
0.0004012626029603274,0.001638191431956372,0.02224480180705523,0.0874017172639191,8,4,32,58,4
0.00022638652889565622,0.000901220301212262,0.013684711976636909,0.05051504534777073,4,6,58,47,4
0.00021847124757151448,0.0008393186721420243,0.013082904607748372,0.04893097790114145,4,3,54,33,4
2.9256024530231456e-05,0.00013856425322750497,0.0033373207140696844,0.009796556649817795,22,16,82,61,4
2.2964408704422142e-05,0.00014553791388262176,0.0034009956408157815,0.009844991472340428,40,14,91,63,4
2.3972527941793737e-05,0.0001238435179355006,0.0036558005960073974,0.00870855234239072,36,22,93,64,4
2.503003572825226e-05,0.0001225880514267618,0.003635715654797956,0.008584272188216798,43,18,100,60,4
2.49761188196466e-05,0.00012798830427908318,0.0035119010622537013,0.008211637363524215,34,16,103,55,4
2.184931605303967e-05,0.00012928231106453054,0.0034386467322419156,0.008220899208585031,35,16,108,54,4
2.115728202115733e-05,0.00013337677074961218,0.00312546264237798,0.008470808330421098,30,16,110,58,4
2.2954646972079772e-05,0.00013594016628925497,0.0030880653041564926,0.00905625964346742,27,16,104,62,4
2.130123266328437e-05,0.00014289330766222664,0.0029052377461282796,0.009106396257850166,26,18,104,60,4
2.1371696645765657e-05,0.00013186790700791764,0.0029122755753608013,0.008917843746075257,30,18,100,66,4
2.1112115362477702e-05,0.00014779377267171178,0.002945170764794906,0.009178429151299822,28,16,97,61,4
2.4503858460769443e-05,0.00013121460608422076,0.0027624344724321045,0.008812694310893533,30,22,93,64,4
2.1160308514771314e-05,0.00013193600118245667,0.002790258280691846,0.009071665902965364,26,25,92,64,4
2.3884796042961858e-05,0.0001245104931965385,0.0027705942702612295,0.008825889842273973,30,20,90,58,4
2.3338165416379666e-05,0.0001236334764576488,0.0029331775957406165,0.008343616448306253,24,25,90,64,4
2.4096351466585498e-05,0.00011959322509185717,0.0031733758713514823,0.008415966419838545,26,26,89,67,4
0.00048139896907125154,0.000932876459091854,0.05586342000398246,0.07465841795889143,28,20,68,42,0
0.00044170794288149494,0.0009162166210979314,0.052651037538523036,0.07607923005360517,20,24,68,44,0
0.00042257780386607455,0.0008566003453560052,0.052617547967961385,0.06695735124548036,22,22,69,46,0
0.0004131717323634594,0.0007868389814028634,0.05000136146117526,0.06282817135994372,26,24,68,44,0
0.0003623268638762903,0.0007552771706252314,0.04587654174750307,0.05852208171660188,32,20,76,45,0
0.0003800311125070653,0.000749007424737751,0.04558995224544001,0.05687973417159947,24,18,69,53,0
0.0004064521143578449,0.0007867591517807287,0.04396638771969156,0.058738484701266545,28,18,72,51,0
0.00045444568150052316,0.0009401369901306119,0.049650408965913446,0.06795188056894914,24,16,69,51,0
0.0004276791967024822,0.0009585902144060999,0.05145162322688943,0.06921871047961518,28,18,71,51,0
0.000423300722843677,0.0008807296378939598,0.05249695615804083,0.06503534367136161,26,18,74,49,0
0.0003931684973330698,0.0006444738767858494,0.050142816839447844,0.05863969048095906,30,20,78,50,0
0.00033602081863832344,0.0005258657397730697,0.047644786310376754,0.05134476948440125,30,18,84,60,0
0.00038232429961632385,0.00045907313147222894,0.04941901504139383,0.05266102859050392,26,22,82,62,0
0.00046640735603796247,0.0005618936269733366,0.05954340801679601,0.06057096412569682,26,18,76,56,0
0.000459502468541334,0.0006027524997700679,0.06119019303777166,0.06124503700590102,34,20,80,58,0
0.0004641113741583495,0.0006692663165910883,0.062585365822304,0.06333695584327109,28,22,74,55,0
0.0004623647132671915,0.0006353074292414158,0.0640704436572846,0.06323649148176637,28,22,75,55,0
0.0004210093074453164,0.0005609862001177038,0.059088345491758676,0.055642057209965574,32,20,75,61,0
0.0004384877483116141,0.0005906808181722447,0.05961593991087261,0.05653028034199202,30,20,68,58,0
0.00043352323517824954,0.0006714415527453338,0.05878206135580065,0.056779310162207504,32,18,72,52,0
0.00045507817967041216,0.0006417494091483776,0.059710351652825754,0.05524878146373265,24,22,68,57,0
0.0004597452946987195,0.0006753995750517347,0.06003044274283812,0.05867407310287063,24,16,74,53,0
0.00046150734890159007,0.0006534183188431551,0.05980305831140443,0.057242448587311125,30,22,73,56,0
0.00043873523529374325,0.0006141920242687294,0.05933958804397755,0.05448273753788814,28,18,74,62,0
0.00041907138120744666,0.0005284902273573635,0.056903733003972876,0.0501656050743354,28,20,73,62,0
0.00039407067564014154,0.0005289904433418755,0.059129889367906446,0.049454505133723785,32,18,73,65,0
0.00036037503091684457,0.0004692137492113554,0.055450530596620806,0.04841921451043481,38,20,72,69,0
0.0004425615160725122,0.0006184300256361188,0.06119459018505226,0.052340666081151344,34,16,73,62,0
0.0003849318697544451,0.0007509635110723313,0.05459942523807837,0.05797682966867294,28,14,74,57,0
0.00042104469225007164,0.0008196790150031123,0.04997191885648316,0.05665986376423972,28,16,73,50,0
0.00043526064640809847,0.0008638990632403736,0.04886200892318702,0.05607092537776365,16,20,63,40,0
0.00037238395259756854,0.0007640813311626208,0.04197955799066681,0.056224803704085904,22,18,66,44,0
0.0004657020789710807,0.0007221288488077747,0.05043138448146354,0.05295952948927351,24,16,62,47,0
0.0004314781359642507,0.0005411033349011028,0.05056597912928878,0.04663004707237927,24,16,62,58,0
0.0004166692176725407,0.0004774903133961629,0.05041347526779914,0.043851125008896284,28,22,70,68,0
0.00041495390971628784,0.00040392838431135066,0.04999359242564681,0.0406352509508376,34,24,80,71,0
0.0003647261568199274,0.000476033385503086,0.05018617389439139,0.04095429155659685,28,20,78,68,0
0.0004007027479642891,0.0004567793376477787,0.05241670561175551,0.045813130452571335,32,22,82,64,0
0.0004009365941711944,0.00047434886911749366,0.05323654749803462,0.04600263149616185,32,24,79,63,0
0.0004193181331129677,0.0004941447511929501,0.05119622664594847,0.045204285449586455,32,22,74,61,0
0.0003873335669399323,0.0005346432497820125,0.04782267896970624,0.04474194359427682,26,20,76,50,0
0.0003393477503456079,0.0005316573527720069,0.04311760771438125,0.03841685055536547,28,16,82,54,0
0.00033797725528992304,0.0005748838416830283,0.04041200958896624,0.04083862142997699,28,18,77,49,0
0.0003516263224874804,0.0005331012201652638,0.03884193095688586,0.03802712482084368,30,16,75,57,0
0.00033300340176682826,0.0004962116791926512,0.03738258299948992,0.03858940168205242,24,16,76,57,0
0.00033457845916517277,0.0004145098334394886,0.03403222460171861,0.03590105458441591,24,14,65,63,0
0.00023972372476968704,0.0003557906700656342,0.02950620277226839,0.031779456407157326,24,18,69,57,0
0.0002483499863376971,0.0003985315543750718,0.030757106569694086,0.03302970095570731,30,16,70,46,0
0.0002192808233678173,0.0002952982169350746,0.027416044886742704,0.028672387238570456,24,14,69,51,0
0.0005712550118353405,0.00038625402120167935,0.07058494489344365,0.04321842027358439,26,26,74,61,1
0.0005704966086020681,0.0004215711121268153,0.07129381624240952,0.04749094612421102,28,24,71,62,1
0.0005997239453740451,0.0004014636883058391,0.07241097233025985,0.047342395271209425,28,30,67,63,1
0.0005209578644062857,0.00035524075326081174,0.07211914427476336,0.04854355634907461,30,30,67,63,1
0.0005624335400462258,0.00039731716970551397,0.07179031482453489,0.04854332342322905,32,30,59,69,1
0.0005514632891729597,0.0004249957584913535,0.07014043280498902,0.04818395791159158,30,26,56,60,1
0.0005366331052339985,0.0004943553224792274,0.06958339499183207,0.05097405699184173,30,24,58,68,1
0.0004960919258257965,0.0005337735205395463,0.06457624283561124,0.0537146152818343,26,24,64,62,1
0.0004851082519029353,0.00044728633912914585,0.06868255650816683,0.052859699253724086,26,26,69,68,1
0.0005134523762737625,0.0005213128859566838,0.06766259229928122,0.05670612483317031,32,22,74,64,1
0.00047942100008747766,0.0004907105234364575,0.06649528061459373,0.057065510365111476,32,30,74,67,1
0.000469032323849722,0.0005631582174876913,0.06922958770605009,0.05635617419607019,32,20,70,62,1
0.0004813518115041029,0.0005569169110310494,0.0701837394303531,0.05834681554418948,32,24,67,62,1
0.0005055863634724158,0.0005544751594018342,0.07379831413645205,0.062321617858445276,34,24,67,61,1
0.0005697450355205501,0.0005255506709825397,0.08448001750627772,0.06402158416730869,34,30,68,59,1
0.0006548900919613089,0.000503466936585848,0.09169116141195499,0.06459415601071229,34,28,70,64,1
0.0006412784929649984,0.0005924036129130834,0.0901284062528496,0.07194009025313379,32,30,74,59,1
0.0006181584553661349,0.0005922092141901722,0.09034666036648055,0.07058887165598278,32,22,71,60,1
0.0006231665895454311,0.0005086927023376704,0.08587779992073882,0.06943654862781345,30,22,81,69,1
0.0005821418771271626,0.0005372436528718666,0.08457016810799199,0.06832049508484596,34,26,78,63,1
0.0006793108977375127,0.0004697708809114894,0.0869054147218482,0.06287461206048926,26,24,70,75,1
0.0006701435811767954,0.0004230958510287297,0.08616361228228835,0.058875937369648704,26,22,64,79,1
0.0006625855038130997,0.0004019530644574099,0.08348611368559564,0.05803821847925006,22,30,64,76,1
0.0006725149438446294,0.00046031722612050694,0.08117564654795727,0.062039441254155905,22,28,67,75,1
0.0005755564215729343,0.0004544927307865734,0.08088510212065428,0.058056429983192194,28,32,72,72,1
0.0006032674598775899,0.0005238913453770902,0.08499300099351889,0.06439555234325621,28,26,71,73,1
0.0006465244871065209,0.0005680597351546683,0.09170196864930809,0.06366006033248293,28,24,72,72,1
0.0006757192596659764,0.0005594121265115419,0.09558775556502945,0.05969967215868693,28,18,67,69,1
0.0006691854754229251,0.0005229704213027726,0.08966230777727488,0.06141265652391025,30,20,65,79,1
0.0006481165600546473,0.00046743755367527687,0.08231391540872396,0.05306555469782486,32,16,63,72,1
0.0006344910024694582,0.00047664722768564705,0.07602463799605749,0.052910274856587274,30,24,61,77,1
0.0005606277739198775,0.0004782897523002781,0.07395630056028452,0.05005517437113816,34,22,70,69,1
0.0005807284099366154,0.0004324907861965532,0.07563152144793608,0.048804891680459,32,22,67,68,1
0.000561047744210059,0.0004535201911968884,0.07448225447018841,0.05037530279613029,38,20,67,71,1
0.0005567358361471844,0.00036768472205551993,0.0715505970858266,0.04819510808042721,30,30,71,79,1
0.0005792076185676892,0.00035112632437763207,0.061584698616206836,0.046638291589222586,22,26,66,77,1
0.0005536809188110709,0.0003436867151237484,0.06278919127502973,0.04533334512524498,28,28,69,78,1
0.0005512459198657815,0.0003771091459417399,0.06598305500178946,0.048120614168391224,26,24,67,73,1
0.000549806170895547,0.00038460097369257744,0.06774755790311357,0.04788844604362032,34,32,69,73,1
0.0004859582174900167,0.0003918084966385744,0.06986789870738867,0.053205362078356654,34,32,73,66,1
0.0005377294448241183,0.0003782462445752672,0.07117348764759444,0.05120479064470703,32,34,69,67,1
0.0005212499603301847,0.000361509265583954,0.0715636725204003,0.05060292253123713,34,32,76,65,1
0.0005316028632359059,0.0003647663362075682,0.06938772588879226,0.049077273220683885,32,32,72,70,1
0.0005380488098920779,0.00042484058534356757,0.07224441150054492,0.049735343529046,34,32,73,72,1
0.0004910062661463766,0.0003943814319494841,0.06843645004071645,0.047348384703561563,38,22,77,73,1
0.0004946626163668846,0.000405975230167591,0.06987515783021757,0.04934458574440698,36,26,75,78,1
0.0005062292848116326,0.00040819833285652226,0.07356057803483254,0.05143645630417134,26,26,74,75,1
0.00047720526044181034,0.0003355778934255669,0.06672252425264949,0.046026300474963124,32,28,75,77,1
0.0005710404086714482,0.00037085799730751564,0.07234605280860286,0.04735801489096762,30,26,72,79,1
0.00046437183897537115,0.0007630113205272456,0.05601776137485463,0.04851301194698183,24,18,78,44,2
0.0004584008064158583,0.0007176852346891429,0.05812822564902564,0.04720779393084482,30,14,76,46,2
0.0004580981730963941,0.0007522524615745474,0.05597566963304789,0.04798590308081611,26,18,74,41,2
0.00047025198648892005,0.0007047308105440384,0.06395330636888791,0.04862966826920757,28,20,68,45,2
0.0004998302319273363,0.0006564090049273314,0.06274033395824714,0.046562442689130956,30,20,69,46,2
0.000475381587635246,0.0007586413405030533,0.058141778423209244,0.05579360806440606,28,16,67,38,2
0.0005722594004399276,0.0009018766410086776,0.06478841508049735,0.07187038143591638,24,18,72,34,2
0.0004772192811665193,0.0009131148681656552,0.05625606672091275,0.07252470833726447,28,16,71,36,2
0.0004887520118530009,0.0008630148327388212,0.0615916545370627,0.06897420649086719,36,24,78,41,2
0.0006954290437732547,0.0007677575782722706,0.07055115069549238,0.056392147087858745,26,20,70,45,2
0.0006711145624985198,0.0005646646923702412,0.061379613982184146,0.03891812949713804,16,16,63,41,2
0.0006608913713418802,0.0006185647227997552,0.06250599619002661,0.03782402089272556,22,14,62,41,2
0.00032343269197929506,0.0004889846872183046,0.044030609122555874,0.029409200621103075,28,10,74,45,2
0.00031936921123268505,0.0006257075226921819,0.0411881192807495,0.03796385112540469,36,14,77,42,2
0.00041656083380970396,0.0005940339594858199,0.05191235350473482,0.03897022962469887,34,16,77,41,2
0.00040765648554094827,0.0007052493533639503,0.056640948116195,0.04485674024653499,32,16,82,37,2
0.0004227881618106353,0.0006893359824920088,0.05861499951630595,0.04462831304370029,32,12,82,40,2
0.00041723881847836804,0.0007239245871685629,0.058810155734290936,0.04582713622015314,26,18,83,38,2
0.0004033790477196437,0.0007316948018311929,0.056231225404891685,0.04898813930071005,26,12,83,37,2
0.0003878341636516833,0.0007492357163352399,0.051455552062440214,0.05052058497978408,28,16,80,33,2
0.0004238124764353932,0.0008517104786735479,0.056229204682880375,0.055959681088190445,28,14,73,30,2
0.00042935884347105333,0.0008147206935402925,0.06208594404128118,0.05492839367000326,30,16,68,31,2
0.00038454447878230635,0.0007633907844133634,0.056583217140220035,0.054472977596814104,28,16,73,36,2
0.00043990619046422973,0.0007484340720165815,0.06278733824944194,0.05062356349032146,32,16,73,41,2
0.0004223527046444064,0.0006726805090100092,0.059224626015107404,0.04966420059875766,34,20,74,38,2
0.00040098534366109543,0.0007713739917967917,0.055240330483837446,0.05219913206489837,32,18,68,33,2
0.0004346761610110206,0.0007865154151223092,0.0583889990802765,0.049790403447563414,32,20,70,41,2
0.0004356865224598396,0.0008971582985659821,0.05566699383066402,0.055983011347419356,32,16,70,39,2
0.0004526242103084614,0.0008937033671998,0.05826836232873472,0.0532353465359459,32,16,74,38,2
0.0004993119981282745,0.0008464107082781276,0.06127786728052816,0.05308657730787567,22,16,70,38,2
0.0005174978444799682,0.0009853718977707296,0.06651162751918635,0.06207617737752988,24,16,69,28,2
0.0004929003106867606,0.0009303544738493399,0.06368942615612024,0.05833219003387109,28,14,69,32,2
0.000531095632876136,0.001166565982616522,0.06222618759830347,0.06477025004983612,26,16,72,30,2
0.00047533509005232434,0.0011129615217955054,0.05893175872842104,0.06586754310067103,34,14,67,36,2
0.00043396156882871933,0.0010560646105641223,0.05176740210089657,0.06365235425130145,22,14,75,36,2
0.00048500966172232494,0.0008997229665364092,0.05342193575679926,0.05631412430402942,22,14,74,37,2
0.00036796418456601934,0.0006700078012348948,0.04979934883294836,0.049823490347313905,24,16,77,37,2
0.00036301448733285836,0.0005724704713971667,0.051238995310229185,0.044681342720501734,24,18,76,40,2
0.0003443636717589269,0.0005057463988321582,0.046627023209570954,0.04117728033931855,24,14,76,49,2
0.00035356205694250955,0.00046589696512629945,0.0480302128395916,0.03988563629395273,34,18,70,44,2
0.00038975619629555235,0.0006066259516551035,0.04450284859344399,0.047157490177687555,22,16,69,36,2
0.00034079316222025675,0.0006560115074012462,0.0398952717642612,0.04794317099231818,30,16,69,37,2
0.0004028412292130125,0.000744048584022098,0.0401547105723202,0.045945634933659336,26,12,69,31,2
0.00034038343188571104,0.0008166976384871709,0.03985896246799187,0.048966690038605,24,10,71,30,2
0.00036396831304865096,0.0007611859272740593,0.04396222396809605,0.04396088031287129,26,13,74,37,2
0.0003198420284069742,0.0007210186692461429,0.0431339792956615,0.04443395978401664,26,12,73,34,2
0.000304200789164278,0.0006282830248415131,0.04445877071400634,0.04206655719905181,28,16,76,38,2
0.00028428723149844,0.000718765428634747,0.0418441875214931,0.04143523285978052,30,14,75,37,2
0.00028603187297566974,0.0005873212850780327,0.03872731546472459,0.03568633186125027,26,14,72,41,2
0.00012239483963959085,0.0005098276523438643,0.019593280067845994,0.0617062484151212,32,22,85,66,3
0.0001274966223147159,0.000569642768161137,0.01981960993254744,0.06429133776576469,32,31,83,67,3
0.0001313560054716948,0.0005268002232825996,0.01963211702812387,0.06395503008845245,38,26,86,66,3
0.00014642988496899035,0.0005792709209643254,0.021226676443142446,0.06502235013513613,30,24,83,68,3
0.0001377065022908984,0.0005485514399715058,0.021645844764687738,0.06845848965752085,38,24,84,65,3
0.00014046882670829143,0.0004787839318676522,0.02194812995138723,0.06094654047983725,32,20,83,68,3
0.00015895632896924402,0.0005201211575296654,0.023480740010441682,0.06283157244740736,32,20,85,67,3
0.00014937627941493103,0.000480993699484766,0.023264194789656883,0.05703291757599337,36,20,83,75,3
0.0001505350995602352,0.0005274453030166985,0.02338642590861716,0.06027919925156734,40,26,82,64,3
0.0003794668814153719,0.0009724742320041424,0.03276815985420971,0.09922829922228771,22,16,74,62,3
0.0004140431790395324,0.0010982892428177897,0.035448096992021005,0.11751963838909323,16,12,64,58,3
0.000402221012884665,0.0011436923461696892,0.036497819487621264,0.12949411488186882,18,16,66,55,3
0.00021215257381454648,0.0008467478045445591,0.03006943300978422,0.12076487401913062,32,32,76,62,3
0.00020854207556865036,0.0008281624773444781,0.030042879152416595,0.11487975463257076,28,30,77,62,3
0.0002058434166641787,0.0007565195797736163,0.029392995150600492,0.10406358471556468,32,32,80,64,3
0.0001992170977381497,0.0007707443944926798,0.028172981885971594,0.10321439167828461,32,26,78,65,3
0.00018825872088634634,0.0007507654821646416,0.027765213577402022,0.10124892386016743,30,20,76,69,3
0.00018701871084275256,0.0007513390076756317,0.02795696692209852,0.09508340824393662,34,24,83,70,3
0.000178672333650639,0.0007239142030164399,0.026743264172834083,0.0956922920672878,36,30,85,69,3
0.0001844654422120253,0.0008158391735174205,0.02895236194775792,0.10218060120268752,38,32,83,69,3
0.00018390699579047827,0.0007382009770845912,0.027922638677208775,0.0965989993660966,32,32,84,68,3
0.00016887814422089292,0.0006651259318841266,0.026569195424311198,0.09103005719370971,38,32,80,71,3
0.0001555805455405822,0.0006741630642507005,0.02420218811610973,0.08973583229775438,38,28,81,69,3
0.00012356740060532747,0.0006217733324306085,0.02030928940097899,0.08141598707406654,42,34,83,65,3
0.0001385293028731796,0.0005721796210926194,0.022633788926736557,0.07968447701475559,38,34,74,72,3
0.00013184727110578231,0.0006620492940071552,0.02175855854868455,0.08495201509316973,38,28,78,67,3
0.00014058917461092513,0.0006270594759606447,0.02230423364117241,0.07875370824164157,36,26,78,70,3
0.00015190062470097992,0.0006181419064642408,0.022495965502793574,0.07610734312846132,36,22,76,72,3
0.00014934336483252356,0.0005884645335847719,0.020398977961159935,0.07435593521791245,34,20,85,73,3
0.00014510408413008407,0.0005215424456400563,0.02126499843816274,0.06684029062453059,36,20,85,74,3
0.0001302005927980561,0.0005691936966823502,0.019523876232462732,0.06434001292396431,34,20,87,75,3
0.0001319018617369,0.0006532941558529757,0.01971766916590491,0.06401600734673853,32,22,85,65,3
0.00014466931552718865,0.0007207304177569004,0.02054214507396617,0.06396809808756473,34,24,86,60,3
0.00014389134038684986,0.0006670170608824447,0.019621457524143144,0.0618690655941648,22,28,87,66,3
0.00014897796452936605,0.0007870796620515355,0.021214543237353074,0.06997860492177102,32,20,78,62,3
0.00014607692280252718,0.0007414110849236346,0.021243128913893634,0.06355291240756213,36,22,82,68,3
0.00012542798925650977,0.0007201956352594213,0.020538109446148988,0.06259921281235219,42,22,87,70,3
0.00012081202389919131,0.0007265394895013866,0.020183178701367547,0.06496768417406788,32,18,90,64,3
0.00011372776587528218,0.0005433243794215558,0.018735999722432325,0.0555439438292211,30,20,88,75,3
0.00011899549632577477,0.0005312861080507238,0.01843395902336763,0.057073007181392146,30,22,84,70,3
0.00011111600716062548,0.0004818151410452989,0.01771627481521964,0.053153560631923225,38,24,85,77,3
0.00014477332924816766,0.0004990159448198503,0.018013563399443957,0.05340855914443164,30,26,79,79,3
0.00013818628578482709,0.0006092939356788922,0.017494043205774575,0.05792406421461846,30,22,78,77,3
0.00013759514156965995,0.0006832995797793319,0.017081055761132925,0.06105724174732364,26,20,74,79,3
0.0001501505004037152,0.0007789651474742812,0.016980036181955448,0.06609792514418701,24,26,72,72,3
0.00013027459746766873,0.0007050057917845511,0.017424975668327986,0.06268192856396247,28,22,78,66,3
0.00013982072302015208,0.0007803311308415198,0.01828777256678223,0.06450427642646277,32,14,79,67,3
0.00013633619952605288,0.0009322770807541165,0.01770233205821814,0.06956376768753698,30,16,85,60,3
0.0001451669153528195,0.0008876390173166624,0.018269532620590587,0.06983113588506411,28,16,82,60,3
2.649255961877093e-05,0.00013894930776665797,0.003208609830032294,0.009131605537602555,26,22,108,58,4
2.5141692042618776e-05,0.0001414387599421898,0.003251993410393098,0.00877709409562651,44,24,110,58,4
2.1756276253664146e-05,0.0001353872764736804,0.0031523486918404228,0.008892992643589502,40,23,100,62,4
2.3778742128169087e-05,0.00013701072884564672,0.003363803593325834,0.008939598134857634,38,26,95,66,4
2.3606647732971925e-05,0.0001360971326797768,0.003247248918759185,0.008808269021177768,30,25,95,64,4
2.159945581874156e-05,0.00013221045830337448,0.0031236840332411033,0.008926072627228008,32,16,99,55,4
2.12716525741099e-05,0.00013295132907174392,0.00300539528557247,0.009009005151242602,28,26,95,70,4
2.242788997262345e-05,0.0001312371698383828,0.002804929848852638,0.009073510966114355,26,20,98,69,4
2.1484818184520704e-05,0.0001301448738728205,0.002962603362725277,0.009167666633554365,24,18,98,66,4
2.10563294104784e-05,0.00013142960535917405,0.0029757041562874535,0.009247511242738555,24,16,96,68,4
2.1426097076055088e-05,0.00012873367633834678,0.0029944235128916605,0.009081596038859314,30,24,97,72,4
2.062720047310305e-05,0.00012355511882512408,0.003053328468646645,0.008752574565754734,34,22,100,64,4
2.0242645958218346e-05,0.000132771113402274,0.0029775018879365043,0.010053718651735046,24,20,98,66,4
2.1011292307818768e-05,0.00013363978254243063,0.003059954582296475,0.01007160647496542,22,18,103,60,4
2.255558177949674e-05,0.0001324561842952849,0.0030388554124695455,0.009723576769852808,24,26,101,52,4
2.2011930699464047e-05,0.00013377884357637762,0.0029867211762589613,0.010054552815895818,24,26,98,54,4
2.009891445638222e-05,0.00012813117465372258,0.00280380677663369,0.008766265939114342,34,20,111,56,4
2.055163847432493e-05,0.0001290083937872103,0.002677666158865288,0.009079090587202243,26,26,111,52,4
0.00011374378395414114,0.00025415584539518354,0.007947071358836875,0.01737352100900445,4,20,65,27,4
0.0002560321305023646,0.004007665042204403,0.015538973578094053,0.2288244079795229,7,4,60,65,4
0.00027720948504151975,0.004213571566446743,0.017475487395266442,0.2289942894747938,10,4,62,74,4
0.0002473844527373634,0.004201848710479191,0.016623446375299094,0.22158017254180964,8,4,62,64,4
0.00025832695550101557,0.00394971444099396,0.018067533138068255,0.2116322493395968,12,3,59,66,4
0.00014565955293780388,0.0002491019573121924,0.013421915686688398,0.017945306673163908,20,12,58,53,4
0.0001231575711688483,0.00022725245812075983,0.012333343441486884,0.01556285878451498,18,13,67,60,4
0.00010794506818243287,0.00020852722404274515,0.01063364706764342,0.014875015103210798,26,16,75,66,4
7.741463057622062e-05,0.0002331144154091259,0.008176948541714888,0.013596542729908909,30,11,74,58,4
6.457791380861012e-05,0.00020837864778028617,0.007304847569980961,0.01279598352644319,28,16,76,51,4
6.758895988440089e-05,0.00018011028643836406,0.0070917763677383,0.011622990169536003,20,15,77,59,4
6.197265292147224e-05,0.0001715346245111352,0.006420522088125805,0.011507427840445613,24,14,78,64,4
6.0005442693876856e-05,0.00016957629730061756,0.006281997000925228,0.011613439153906122,18,15,85,58,4
5.389093875231834e-05,0.00017365563937720436,0.005152831967095305,0.011169054033026342,20,18,80,61,4
3.984909980351373e-05,0.00018222941487432232,0.004608473635567296,0.01050030984171104,16,16,87,58,4
3.036634186730087e-05,0.00016877891940043468,0.0042736257814253754,0.010110721137861139,29,20,89,49,4
3.0938612713213134e-05,0.0001430053216835683,0.00405449615792263,0.009111955841278779,32,22,86,58,4
2.923684376207937e-05,0.0001333912149855897,0.0035711823841099353,0.008663528557307303,29,20,96,48,4
2.6247482316626425e-05,0.0001374420244414745,0.0032275955816500643,0.00881322194201254,30,22,92,54,4
2.1041546408435605e-05,0.00012791897728307188,0.0027356054504887777,0.008472696547973953,37,18,89,56,4
2.1407618389113178e-05,0.0001298486491616292,0.0029433175459764632,0.008313482692428617,34,20,91,54,4
2.468538934503848e-05,0.0001388965730891035,0.0032324944370693224,0.008706495610906348,32,18,92,44,4
2.464596270776497e-05,0.0001332973718412621,0.0033693877226221077,0.008904836917259,30,18,89,42,4
2.407240900671796e-05,0.00013092486885772287,0.003371927105227053,0.008532940839317625,32,18,96,45,4
2.4422539723319247e-05,0.00014750434901982372,0.0033781559899883806,0.00920517351931201,36,18,98,54,4
2.4615574743686797e-05,0.00013167349697911084,0.00320109884224346,0.008636424951716768,32,24,107,64,4
2.1412794275621722e-05,0.00012851450359802847,0.0030220393717186687,0.008565977133175693,22,18,114,62,4
2.2241918577297976e-05,0.0001355453645568114,0.0031975302000502447,0.009163871446164616,30,24,109,58,4
2.0896688227103645e-05,0.00012093717634180578,0.0031130600746587635,0.008506412679560088,32,20,106,60,4
2.3169799081197134e-05,0.00011851874744594381,0.003406773013467423,0.00846610495506415,40,18,97,52,4
2.2680714888498164e-05,0.00012293236188148801,0.0035777006683117823,0.008511033540270154,40,22,92,44,4
0.0007018581431717866,0.0016237451921637142,0.09623874136688826,0.11472069277042142,34,18,69,51,0
0.0005993590174429381,0.0016880849290417362,0.08644024351113497,0.1201597821655945,28,28,76,46,0
0.0006072777055076163,0.0012990318932053035,0.0859029799809517,0.10886866386768124,31,30,74,50,0
0.000514001380179397,0.0018316769357224157,0.0724071584653712,0.13172220284994277,34,30,75,46,0
0.0005704540184700975,0.0020140450776875572,0.072945441824893,0.14491811612908329,30,28,75,39,0
0.0005734921496293126,0.002031432512955233,0.07039210148590835,0.129836892729267,34,26,62,42,0
0.0006478868018565077,0.002014446896984294,0.07377991133361606,0.1287193012248827,32,24,73,38,0
0.00063732829665575,0.0016902699909244056,0.0726762723695498,0.11673671931219183,32,22,77,36,0
0.0006278903862740142,0.0016477791598698613,0.0781960181838443,0.10990967400568367,32,24,75,34,0
0.0005976094008348317,0.0013138961107027644,0.07879821696691724,0.10381959328444366,36,24,73,41,0
0.0005937809210757536,0.0012532628118697648,0.0781354039820289,0.1013954394714038,26,32,72,38,0
0.0006780722000221,0.0013303611558266903,0.07546216906801384,0.09551429487974196,28,28,65,39,0
0.0006273487662211053,0.0011828944495845867,0.06551639752816826,0.08856327235277556,30,24,74,49,0
0.000538843486038059,0.0011936470560591098,0.0628714303801003,0.08002216172923719,30,26,76,45,0
0.0005383757918295508,0.001160398376388281,0.061643973431572165,0.07879286522922886,30,24,77,43,0
0.0004558917527317736,0.001139979882145759,0.06155703666089547,0.08100938759365764,34,24,85,48,0
0.0005124613953100262,0.0011552729999765316,0.06699063521131882,0.08250078205433482,32,30,82,49,0
0.0005393658473775914,0.0012312335662530707,0.06812405591590123,0.08696852832475618,30,30,82,55,0
0.0005046279045819529,0.0012041032139835427,0.06626128736021418,0.08319698627300032,32,30,79,51,0
0.0004988347516702099,0.001080429918383923,0.06851650481271027,0.07592443745213777,28,26,76,53,0
0.0004443537757996768,0.001087644912607159,0.06025320185379647,0.08124121627070754,28,22,76,48,0
0.0003853765170820493,0.0009472762048299447,0.055252096563322355,0.07508452236057366,28,26,79,48,0
0.00037960731602010674,0.0009236918012774656,0.05601653459362119,0.07983904248904933,32,26,76,50,0
0.00039601097191468667,0.0010247874257408739,0.051859910100247125,0.0823535356598933,34,20,72,42,0
0.0006396835416582849,0.000515438935554176,0.08660723471089299,0.06056665396275538,32,22,74,68,1
0.0005267692487768259,0.0005093038477391653,0.08054602245802493,0.061350383895051944,30,24,79,68,1
0.0005626096312395837,0.0005391508296945144,0.08033913751185737,0.06082884467016021,34,22,73,65,1
0.0005934805568294219,0.0004496947343511003,0.08488581724742074,0.05421860479708747,28,24,71,67,1
0.000589231117902379,0.0005190182743031058,0.08387653813191609,0.057622707158189276,32,28,69,63,1
0.0006506301788791882,0.000546601376282908,0.08578582189602474,0.056427425248821286,30,30,69,60,1
0.0006015289569744128,0.00047888807458978255,0.0797865115222604,0.05254876690435275,26,22,67,60,1
0.0005085315886175603,0.0005278516424735827,0.07176154754664449,0.05566688997270495,32,22,66,61,1
0.00047485271275591305,0.00038017019086466006,0.06280251662834725,0.04391370048319368,28,34,67,70,1
0.0004106357631099506,0.00033750460663102403,0.05951499396055721,0.042537609445424986,24,28,70,72,1
0.0005181530139036114,0.00036791508472096767,0.06198840929978229,0.04776716003212031,30,32,79,74,1
0.0005382605430023731,0.00036864389234582726,0.06914617193007778,0.04783563688085069,28,28,77,76,1
0.000600968227555765,0.0003715283816933765,0.07304014762947494,0.05070282127479427,32,28,79,72,1
0.0005829442213175852,0.0003942148449242442,0.07056105560720409,0.047322254155771126,40,22,76,63,1
0.0005304750356558383,0.00041206899335016626,0.07032606366220527,0.0507228283688935,38,20,70,62,1
0.0005692235986118784,0.0004078768634608261,0.07105238019055023,0.04897533408253136,36,20,70,66,1
0.0006061455181797591,0.0004326358872160682,0.07437745569724254,0.04832281740312624,28,24,61,71,1
0.0006479446047448083,0.00045832636351362215,0.08102257178136968,0.0529997477001723,26,24,59,63,1
0.000677478937931743,0.00041457428370631855,0.08409100163519091,0.04810335237488341,34,22,56,59,1
0.0006727777124105884,0.00043375958825442264,0.0780293843925712,0.04942337421033175,34,34,63,59,1
0.0006270852163074678,0.0004570641042243028,0.07637095027867309,0.052451765379060725,34,20,63,61,1
0.0005809159741411986,0.0004586711340532746,0.07695486476907044,0.05162044722383067,32,22,68,62,1
0.0005055811333910748,0.0004468859768579394,0.06930637596458944,0.04994369695993608,32,24,75,62,1
0.0005658435576650019,0.00043098557435290117,0.07404968140376117,0.04750888178656322,30,28,72,63,1
0.0005828985570129958,0.0006428784631648816,0.06992128994718767,0.04598181587682179,22,20,63,41,2
0.0006081853022911802,0.0006459937140830253,0.0766482300986391,0.04860980023584668,20,20,64,36,2
0.0005841858817259963,0.0006520993271529851,0.07539380153856404,0.04781098337987479,20,16,66,42,2
0.0006242840275630179,0.0006937170909591193,0.07629375417624683,0.05171447441770803,26,26,65,39,2
0.0005392399961798877,0.0007158644859112424,0.07233577571652097,0.05036287379919578,24,22,75,39,2
0.0005150855566631889,0.0007553354547608368,0.06947127170417887,0.049162189548531715,28,22,72,43,2
0.0005252981006920301,0.0008299688023951201,0.07312906779554199,0.0527994761622417,30,24,71,40,2
0.00045972362856159897,0.0007512604306367435,0.07067170833210404,0.04981903677953726,30,22,71,46,2
0.00044067934214932306,0.0007619410385837445,0.07154461210067344,0.04939077898617843,32,18,72,53,2
0.0004672475998737559,0.0006657574940439972,0.07266452008285994,0.04829373517548172,32,18,69,47,2
0.0004740800371120705,0.0005902909650949906,0.06794192761804627,0.046028625630619206,36,16,73,46,2
0.00048256479013343155,0.0005375742295757589,0.06867916115159543,0.04132032003843863,34,18,72,48,2
0.000551098283530629,0.0004886098958781779,0.07040459674347399,0.038129217881553754,40,18,74,46,2
0.00046036804152681146,0.0005164703644444748,0.06253244327537572,0.03672989363293191,40,14,75,49,2
0.0005302954131948276,0.00048806223429671944,0.06896736394240774,0.038246248574068976,38,18,74,49,2
0.0004977767959250412,0.0005397604854362937,0.06605967090223948,0.04271992676546182,34,20,75,54,2
0.0005161189885671081,0.0005938448297713969,0.06241990939955206,0.04850714524658241,38,22,86,55,2
0.0005168191804235551,0.0006561073974364013,0.068541368045632,0.04740263791095643,26,22,80,54,2
0.0005173268701624247,0.0007526138048493843,0.06426818959597438,0.04777104156399135,34,20,79,40,2
0.0005010469642254563,0.0008420487688119121,0.0614685277657705,0.04973415498281869,32,14,78,34,2
0.00048045070009911843,0.0008200735577905123,0.061643701199286305,0.047773720286655184,30,16,74,36,2
0.0004792632522178814,0.0007616233742118686,0.05903884963320565,0.04859332928983704,30,18,77,36,2
0.00043188327293025683,0.0006563058128084656,0.05640412258447339,0.04549037458519203,34,20,76,47,2
0.0004099705307074267,0.0005763038756787496,0.05455187425062127,0.044670709034863226,36,14,80,45,2
0.00027771801765177467,0.0009400644852590502,0.040518253438908136,0.12380803417310457,40,36,68,69,3
0.0002674271545184845,0.000938561932949238,0.03910556794273747,0.12753949576775483,40,32,69,74,3
0.00025471219222599845,0.0008835814625995822,0.036370229548841074,0.11276077422379042,38,32,76,69,3
0.00026892588455497375,0.0008572423513138097,0.03471119374714086,0.1166294335723005,40,30,81,64,3
0.0002936935927866852,0.0008645123280832368,0.036979828314316246,0.11321782479809493,36,30,83,67,3
0.0002750143935779553,0.0008228168336016376,0.03518941369602851,0.10770792069028681,34,30,83,67,3
0.00023266010109979337,0.000734462826750817,0.032191974034636556,0.1052480783099312,34,30,82,72,3
0.00023166075272999115,0.0006543191914893962,0.0326593482430668,0.09910276902407945,36,32,75,79,3
0.00019973744794078637,0.0006816821322832335,0.02889739164874796,0.09552561336312661,40,36,70,77,3
0.0002229365004706405,0.0005828632287276884,0.03140468850525655,0.0940131078836903,40,30,73,77,3
0.00022975904791411195,0.0006285487671696934,0.03115734652791068,0.09120295546480281,30,34,73,67,3
0.000231472955345466,0.0006874677448719326,0.031010735541772423,0.09726016362759508,36,36,69,61,3
0.0002101179389759603,0.000652436772523998,0.02976836174805727,0.08926527155085036,32,34,71,62,3
0.00017557734845854422,0.0005980979233987657,0.025359771034676903,0.07879624435652512,36,38,73,62,3
0.0001866319100924513,0.000625622689801023,0.026914218176175248,0.07425723230281127,36,34,72,71,3
0.00016316232497681608,0.0005694562052660289,0.02408921648997671,0.06532884033073298,34,30,71,70,3
0.00014109998533527618,0.0005093826842337172,0.022648638043504556,0.061042363306557296,38,26,79,71,3
0.00013381408359912394,0.0005650695132197307,0.021113246503234897,0.06257004816623091,42,32,80,64,3
0.00013591465984355358,0.0005042815790751466,0.021001664779661967,0.06557814745520531,42,32,80,66,3
0.0001581292515217814,0.0005691007293103246,0.022609841973810513,0.07089613019281714,36,34,80,62,3
0.00016104546230272346,0.000596566689229577,0.022193164016948614,0.07237585072675337,42,34,73,63,3
0.00016781852085647332,0.0006250434859875645,0.022197832232166766,0.07470197163358415,34,34,79,66,3
0.00014114065034813523,0.0005988393154311493,0.020712257110193307,0.06766651619796885,34,34,77,66,3
0.00011735076856226554,0.0005273824945682859,0.019420738996420186,0.06405876785811769,32,34,78,64,3
2.241845275655071e-05,0.00012337441468666808,0.0031243117064470795,0.008626666056426499,28,17,89,70,4
2.1174886961173562e-05,0.00012386373899427446,0.0031475024672994825,0.008859211461404741,26,16,95,65,4
2.025343690552515e-05,0.00012427783268127628,0.002963906446120574,0.008872369182873976,30,20,97,66,4
2.180902687949446e-05,0.00011950354152322083,0.0030155719315190298,0.008667140432146728,35,18,94,64,4
2.131249927303964e-05,0.0001225608922591046,0.0030186788877618683,0.008598205054538668,36,18,93,64,4
2.103609057175992e-05,0.0001196966958979503,0.002937509079375712,0.008470112666517536,32,18,91,66,4
2.240001685928338e-05,0.00011601992066618664,0.0031631685025628356,0.008720315151401715,36,18,93,58,4
2.2867348808964998e-05,0.00011959810053662132,0.0031039486474157274,0.00843253856423742,35,16,92,70,4
2.205242164839873e-05,0.00011456182472464692,0.003259513510305675,0.008246114949364138,30,18,101,60,4
2.1847583043463772e-05,0.0001170854792186516,0.003230517803917132,0.008429609162886252,33,16,95,56,4
9.06378354155935e-05,0.0007450637405623319,0.005879938517638657,0.04064897997569522,22,15,71,39,4
9.16404950035957e-05,0.0007862029829948132,0.005787569755327403,0.04130184114737697,31,16,73,53,4
0.00011042003894269946,0.0035403858541875255,0.006632239740396687,0.19300150048201511,16,20,70,82,4
0.0001114481145396046,0.003633993264192063,0.006731104701525898,0.1910303486886558,23,14,70,68,4
5.511610459436113e-05,0.0031618942807777883,0.004585514328545573,0.1670349636717409,34,20,85,46,4
2.6378470227044992e-05,0.00016551487975029872,0.0033888604793483293,0.00978733588912166,24,14,93,53,4
2.5969567759470553e-05,0.00015331547859488825,0.0032960282483850928,0.0094386304681467,30,14,96,46,4
2.660386780487626e-05,0.00015739985059793835,0.0032504284780010433,0.010000094244464313,25,12,98,48,4
3.0179890385840084e-05,0.0001540312357135626,0.0030935293330636836,0.009498261177082024,30,11,96,58,4
2.6266408625196738e-05,0.0001453736251291169,0.0030807101644646203,0.009262452175948562,34,12,101,58,4
2.7448585988616953e-05,0.00014944761675722776,0.003191561809224236,0.009365672637529172,30,14,96,58,4
2.4967759312998027e-05,0.00014787256011367239,0.003387537590192513,0.009666861408642284,33,20,92,62,4
2.7794615070008436e-05,0.00014748227623837315,0.003502884390732983,0.009474859938663194,32,18,101,52,4
2.9526509841528237e-05,0.000144394304029464,0.0033068259574605967,0.009348086525196834,33,16,103,52,4
