f1ch1,f1ch2,f2ch1,f2ch2,f3ch1,f3ch2,f4ch1,f4ch2,Category
0.0013046128877587384,0.0006340020166974244,0.07495858192791176,0.057960721350195,10,16,65,56,0
0.0013394221947403814,0.000744062549255471,0.08511205811777581,0.06746316631601276,12,20,57,59,0
0.0007897386795862102,0.000733529522339572,0.08082397012914934,0.07765542123994847,20,26,71,58,0
0.0007558472457326916,0.0007347496996025227,0.08353528636502358,0.08199965430797194,28,22,69,65,0
0.0007384611327999752,0.0006884943200685499,0.08438732351001782,0.08763484116371062,30,28,70,61,0
0.0006122283615371551,0.0006189198783460068,0.077744661799272,0.08213206847981269,34,32,72,60,0
0.000502473164446718,0.0005241651089072841,0.07066059936258418,0.06848184255314044,30,30,69,66,0
0.0004488238651378768,0.0004518659787990068,0.06742444718515204,0.06317146176556274,36,32,72,65,0
0.00044844863170359785,0.00042296752922244864,0.06628635144356695,0.05903631683306785,36,36,77,63,0
0.0004213031882704457,0.0004120505368934966,0.06505193318237322,0.058637964308160824,36,32,73,66,0
0.00043204652792871827,0.0004691243897576538,0.06665038270252445,0.06319160971529515,34,32,78,57,0
0.00041314163996555186,0.0005013174854044891,0.06317473632460241,0.061878872583145,28,32,78,56,0
0.00047450241521364636,0.0005166545327114417,0.0654924002386987,0.06058798710272523,30,28,73,58,0
0.00046530892771365427,0.0005216658767190992,0.06662733841318395,0.06309784251817281,36,30,77,59,0
0.000456225435067371,0.00043718348004992516,0.0631094375596909,0.05393666739167028,32,28,74,62,0
0.00044027978462489665,0.00042175487833299503,0.055313578268483515,0.05069239795654688,30,24,68,60,0
0.00039161909456796805,0.0003903122856183806,0.04836142744983151,0.04673150421852308,34,32,70,58,0
0.0003392735324163221,0.0003933085152651224,0.041970377375950184,0.04123577112335776,32,26,71,63,0
0.00032532493090806905,0.00041919180398990473,0.04131794816513065,0.04819550118362024,28,30,70,56,0
0.000342634243831069,0.0004070212529262918,0.04274245333019029,0.04746917941515015,30,26,78,62,0
0.00032291149702110846,0.0004114904980219744,0.04256561265436066,0.047648990537869466,30,22,74,56,0
0.00039249796126326924,0.0003882932601695267,0.04715854797680032,0.05059603524391113,28,24,68,61,0
0.0003813626475887372,0.0003543387813206939,0.047576098955393054,0.043026412798458355,36,26,74,71,0
0.00038334513412523885,0.00035012845818249846,0.05121621098582769,0.04463491891045363,38,30,68,62,0
0.0003655000705420798,0.000390815534873704,0.049444727640780756,0.045516771156097986,38,32,70,59,0
0.00029319231689543536,0.00035136610916880495,0.04644249674449945,0.044208313991505065,36,32,71,57,0
0.0003378508048850374,0.0003843916701787501,0.04765654038451324,0.05024555141864201,22,34,75,56,0
0.00035399714708665865,0.0003776755059101039,0.05089061945624431,0.05151032227962615,28,28,78,56,0
0.0004221292303885069,0.00039814307011683524,0.05390148380155686,0.0519938432588796,34,28,78,66,0
0.00045573736546659265,0.0004890319520804002,0.05896267431646751,0.05910649965868591,42,28,78,66,0
0.00044217897915506323,0.0005118122159342999,0.059694054101492956,0.058350110628068004,34,26,71,60,0
0.0004307630185643823,0.0006028613371055306,0.05917637338764929,0.0651473248674428,36,28,67,52,0
0.00041067933497436086,0.0006304480207960002,0.05807686111987793,0.06593775719888306,36,26,72,49,0
0.0003790915402792289,0.0005873206164783381,0.056838647460179914,0.06255166788627659,34,20,71,49,0
0.00038048976784529236,0.0006319861957070255,0.055663302760306586,0.06870880520510336,36,26,72,56,0
0.0003677153411859627,0.0006099352568195955,0.05439474618462603,0.06325410525705198,30,28,75,62,0
0.00037534006977413167,0.0005905840284933221,0.052607674478645186,0.0602959869012979,28,26,72,63,0
0.00039897831736247785,0.0005435511625597099,0.052336061755356086,0.05806184452859016,28,18,71,61,0
0.00036292129143724125,0.00047773624434599383,0.049824586419832964,0.052078736590824015,28,22,74,62,0
0.00034512835953736347,0.000530256413147198,0.04900005991839959,0.05352291978431223,28,22,66,63,0
0.0003833698500751538,0.0005184456391268988,0.053458696080716066,0.05505697303852458,30,24,67,67,0
0.00037982109660230907,0.0005059995373647652,0.05145516880372385,0.0529994036116854,30,24,69,68,0
0.0004213318551711294,0.0004537854630903113,0.049497235919570275,0.050007425376566716,24,26,74,58,0
0.0004371691781252429,0.00042935982244059824,0.05158608851625794,0.046487124271609705,24,22,80,66,0
0.00040027922701041217,0.00044586608210286336,0.05130671749803407,0.04630985763661723,26,20,75,64,0
0.00038241807820892467,0.0003990585349416166,0.05115769893038414,0.0433172364791943,22,22,78,66,0
0.000389288359929233,0.0003670364442193891,0.052981271947102136,0.039686727239478296,28,30,79,67,0
0.0003829273991798756,0.0004162352403601705,0.05127483229852189,0.042269010344065557,24,28,71,64,0
0.0008334001026476336,0.0006779391403286622,0.11460586345905764,0.07566067446605618,28,22,67,58,1
0.00096042142334577,0.0007238456591071149,0.13127423793803525,0.08422221628279013,30,22,70,64,1
0.001004595859902314,0.000662185726159464,0.13559069349123828,0.08304133121747838,36,24,67,62,1
0.0010469344677451976,0.0008056516090721596,0.13936518112565294,0.08908274598310018,38,24,71,63,1
0.0012158080230622009,0.0007529001555527881,0.15690069820198102,0.08739510151715912,30,24,68,62,1
0.0011357920832892748,0.0007155910159456845,0.1488122975346174,0.08400259957992641,32,24,79,55,1
0.00116759747967638,0.0007508081462161205,0.15071200346744393,0.08502017658982279,32,22,69,59,1
0.0010267471131045719,0.0006359186607588922,0.13855171756384246,0.07437304277271842,32,20,72,62,1
0.000828701304930851,0.0006371176846363012,0.12612767217697915,0.06848260989773906,40,16,78,64,1
0.0009665068644311893,0.0005841392901835429,0.1299606112382428,0.06950174730624861,40,24,71,69,1
0.0010043421019046452,0.0006106052435203866,0.13893139220103878,0.07105662440609382,38,30,72,69,1
0.001057457628370083,0.0006260500364963433,0.14639613476570967,0.07787876442791584,32,28,72,63,1
0.0011119514478127002,0.000733150483152211,0.15561354448687503,0.08429681804554251,34,22,69,63,1
0.00109054240789445,0.0008368772606568322,0.14754722093376688,0.09418587683490738,32,18,66,55,1
0.0009943476434363051,0.000716305450034222,0.14084288907938752,0.08559357852892995,34,18,66,60,1
0.0010116820821887281,0.0008028194598407769,0.1440851535536218,0.08711322221294018,34,18,63,61,1
0.0011173028865206981,0.0009358927175369813,0.15300927989098465,0.09883193517977137,32,18,67,59,1
0.0011248760178345237,0.0008539544619311309,0.15085170681884044,0.08929588423480546,30,22,77,65,1
0.0011792092814379997,0.0009004696637766478,0.16379902540046945,0.09395333595451372,28,20,70,62,1
0.0011976291736852764,0.0007637671047621226,0.15704443982190552,0.08619337974467835,34,18,72,72,1
0.0010849622513645122,0.0006850172877993964,0.1469999111137644,0.07509561801526704,34,18,74,72,1
0.0011008548521121856,0.0007328677876510915,0.14408902950656816,0.08229351722205225,30,20,69,66,1
0.0012552341021352588,0.0008011339571993883,0.1458536889355535,0.0869760265638559,32,22,63,71,1
0.001227355113991894,0.0008417426118817903,0.15271097920552962,0.09618357277246606,32,26,65,66,1
0.0012212699209686341,0.0008749976997642063,0.14574262108286662,0.10280370516461086,26,22,65,63,1
0.0011478111390814127,0.0008776559794585789,0.15303810617898417,0.09455163116245857,30,24,63,60,1
0.0009466440524565764,0.0007928885336084487,0.12596454953855124,0.09039477032511421,28,18,83,57,1
0.000810778985933136,0.0007365196722476316,0.118027428378362,0.08219713211481844,34,22,90,54,1
0.000947332699053362,0.0006630531555799089,0.13498249918969574,0.07936277127320601,34,24,84,69,1
0.0010005734313929746,0.0007017804285178483,0.13724090777405787,0.08785591029012615,30,26,80,72,1
0.0011926666832151776,0.0006643158001257842,0.15543594302473399,0.08175223037911333,28,20,62,66,1
0.0012215650048484304,0.0007039402778173323,0.15723445203402647,0.0897209801050445,28,30,61,68,1
0.0011476986345870922,0.0007446208649446545,0.1514721795295143,0.09009839841499287,32,26,62,63,1
0.0011028582307905383,0.0007623480718910329,0.14429517319822618,0.08641561932574374,28,22,64,65,1
0.000958865326500458,0.0008737342616855254,0.13158525225141715,0.0940907846109768,34,20,70,60,1
0.0009971066203809432,0.0008719575295109429,0.13733428798678238,0.09161659295246749,30,24,67,61,1
0.0008744127292578002,0.0008078313879695105,0.12312719959643374,0.08871063355306459,26,22,72,66,1
0.0009054154578665443,0.0008788648159284806,0.12364851663712385,0.10342730971970936,28,22,71,67,1
0.0010260740126432752,0.0009155627372904132,0.13358294739056029,0.1023745608645337,26,22,75,58,1
0.002678113338447496,0.0014614810703217746,0.20258837771828908,0.11700500221480586,8,12,76,58,1
0.0027004443729712695,0.0014156034376374305,0.20349080443507647,0.11100989046834847,8,10,64,61,1
0.0025604204682162525,0.0012684447682918027,0.1887939176621921,0.0916094267890288,6,8,66,61,1
0.0007270926578490386,0.0007441313020296153,0.10535301503011102,0.06305086108236144,36,14,74,60,1
0.0007118156572305861,0.0007259296803472605,0.10130666265763458,0.0599543113345941,36,20,70,55,1
0.0006854486440780963,0.000743830944589403,0.09537721864858921,0.059701388886602966,34,20,74,53,1
0.0007465224308250669,0.0007336897429297321,0.10416017744218245,0.058976668919771616,32,20,70,55,1
0.0007377180834762039,0.0006484642730262345,0.10115177530212538,0.05729024832930588,28,22,74,57,1
0.0006114546094408246,0.0007039890687471754,0.08986753975267772,0.059067573860154134,26,22,77,56,1
0.0006572668264936382,0.00031331293984162087,0.0981256866192379,0.02671042035879842,42,19,76,64,2
0.0006222663990992753,0.0002867029928351598,0.0981287209407495,0.026158984743643348,36,22,78,66,2
0.000629533580965995,0.00031150617973386074,0.09887294131993597,0.026328723860401387,38,27,79,69,2
0.000669734169235432,0.00032716614397710237,0.10861200577151736,0.025748521237044318,36,14,72,66,2
0.0006276172185079766,0.0002888003372531436,0.10976752775601777,0.024332295658901017,38,22,77,69,2
0.000653077099930151,0.0002961407832851469,0.10579651870590956,0.02526749995556952,34,22,81,70,2
0.0007471967317258758,0.0002749845172893695,0.10875452847736879,0.0242345243683788,30,23,74,73,2
0.0007362821430333934,0.00031793934959341817,0.10338124336152514,0.025321746065377296,30,22,81,69,2
0.0006832431269194556,0.00028486766087058965,0.09774212107487007,0.026036057784990133,30,23,75,69,2
0.0006364360082707253,0.00027437951249613185,0.09960178472171187,0.02563509655102629,36,16,76,62,2
0.0006298731211283045,0.000254334091913614,0.09630048956940844,0.024272252202850612,42,18,77,65,2
0.0005813813134654433,0.000247937600819664,0.0929152735855042,0.02448480200805871,38,18,75,67,2
0.0006603640331732039,0.00025938612496991377,0.091699297877122,0.023770585784102072,36,22,79,73,2
0.0005130703176356874,0.00031534685558976775,0.08460158205461102,0.02461924755344116,34,22,78,68,2
0.0005299825591677951,0.00033622983094561435,0.08114347716740974,0.02622765766489573,32,20,76,64,2
0.0006408991474936205,0.00036118675491314035,0.08461247794657295,0.024382985359334974,28,18,80,56,2
0.0006797349978301699,0.00033423122659196605,0.09008075537158727,0.025994626566487076,26,21,72,55,2
0.0006405919275622511,0.00026675248488956647,0.09544337273772978,0.023740074055771596,30,18,75,63,2
0.0006982967875713415,0.0002499406935862517,0.10991201135390827,0.02364041286245505,34,23,79,66,2
0.0006906583682882983,0.00024038259926785802,0.11182270516807562,0.023663163031138367,32,20,74,69,2
0.0006933420166954627,0.00031826909238752405,0.10897663896557476,0.023238219542528176,32,21,80,66,2
0.0006760222234107197,0.000305624545440792,0.10704935944707558,0.024531214264114056,30,14,72,65,2
0.000618985670549187,0.00033589253899396504,0.0983596629123219,0.025713210384835764,36,25,77,62,2
0.0006069005985473535,0.00029835486787602427,0.09192951785331445,0.02595963919128563,34,20,75,63,2
0.0005805055644644736,0.00026995002609522584,0.08818921075059762,0.024314682931115807,32,23,85,72,2
0.0006222018619185762,0.0002924309739295284,0.08480910834647735,0.025290078445536213,26,18,85,70,2
0.0006256443905307462,0.0002721560898070796,0.08792583871103113,0.02505520379864223,30,23,78,70,2
0.0006170948745624985,0.0002619345433567324,0.08846555825558801,0.02333118657149851,28,24,77,69,2
0.0005604224589665788,0.0002691978055209662,0.09019548572714059,0.02349908323528477,34,25,79,62,2
0.0005479113292455551,0.0002793582993657288,0.08722528009355823,0.024919070873214058,34,22,76,63,2
0.0005435186757162157,0.0002786834910707831,0.0857595692175856,0.024795184050148165,38,21,80,61,2
0.0005010512807810676,0.00026212146460424064,0.08260292023632089,0.02547117589785005,30,24,78,63,2
0.0005429013536149518,0.00027069929780182243,0.08403054903533794,0.027213409063531074,30,25,78,67,2
0.0005765426056609076,0.0002643894832836075,0.08861481216182616,0.025393236369984685,34,20,81,74,2
0.0006144121710724583,0.00023620846864853457,0.09154075527263293,0.02511680977178997,30,29,76,69,2
0.000724165105186514,0.00020244259016490888,0.10759253725777429,0.02308347414153282,30,24,72,69,2
0.000725553322550032,0.0002455590843842358,0.1133754986527452,0.02488591842276949,34,27,70,76,2
0.000664225331321597,0.00026977584538946767,0.11259698413696766,0.02464185219852269,42,20,74,80,2
0.0007029642749127377,0.00035235627420202053,0.11288422223290642,0.027959413970145196,42,13,74,74,2
0.0008853300766500818,0.0006206364308590058,0.1145583494866382,0.04124935633556693,32,8,77,71,2
0.0008711041894430555,0.000639309267755398,0.11782786762097187,0.04166968488824105,30,8,76,61,2
0.0009676081509893799,0.0007268465367211995,0.1203466021341899,0.044772450383264564,30,12,73,59,2
0.0008013086269506996,0.0003902957934566804,0.11919252520233074,0.03018281689083215,30,12,80,69,2
0.0007598807227088448,0.00039948653600809067,0.11223955413096223,0.03198031801178132,36,22,80,73,2
0.0007481582728470036,0.0003841709694671803,0.10172860581389334,0.030712018230412277,32,22,78,68,2
0.0007252464445696582,0.000317366783589495,0.11055367041578128,0.028213092111276396,40,20,73,61,2
0.0007908530493136925,0.00031669242180059205,0.11093560785308508,0.029169701122904717,34,22,73,66,2
0.0008003263256964342,0.000353493441305722,0.10926544203241846,0.028939887767504318,38,22,70,61,2
0.0001986921216933116,0.0007793108106389764,0.03061773527188075,0.09539603847458639,36,26,74,69,3
0.0002152019893965799,0.0007493682465175508,0.032199414065024363,0.10589239650757491,38,30,76,67,3
0.00020595271042620245,0.0007247215084175743,0.031601809058143464,0.10372674451206781,36,32,76,72,3
0.00021410794742703017,0.000824242712492618,0.03351691635430649,0.11528236774608945,38,34,78,68,3
0.00021162689195379752,0.0007955402686628789,0.03327341667670274,0.12189247617104836,34,32,77,72,3
0.0002059288788494835,0.0007125576726497387,0.032185672717069444,0.11414177805384873,36,38,78,70,3
0.0001963898419110133,0.0009231531061152352,0.032613855961550385,0.130922439857112,32,30,77,67,3
0.0001879516473225031,0.0009056844343655257,0.03016211355082775,0.12181928486272339,28,30,82,69,3
0.00019978362517347533,0.0009152911344177945,0.03043047791537959,0.11474296498980732,26,26,78,64,3
0.00020723439519472028,0.0010017267758582415,0.031639125085281675,0.11790131738884496,34,26,77,65,3
0.00019637904936437118,0.0008287565206039286,0.028261092928737686,0.09916712678468048,32,28,82,65,3
0.00018455221843490907,0.0007606264297695173,0.028307197157751384,0.09220397222902278,38,28,75,67,3
0.00019524288271708458,0.00076650439847855,0.027100101068392116,0.1002084062596364,30,26,77,68,3
0.00020265471560156485,0.0007211385645943623,0.02665372452094314,0.09658027316827168,28,24,78,74,3
0.00020341050683219563,0.000730035385390625,0.02721120240037622,0.10348571430592625,30,28,67,78,3
0.0002124027146162008,0.0007868138904270054,0.029173900423733523,0.11702277398436113,30,32,71,76,3
0.00022355072762265656,0.0008861911401311033,0.030349626330380835,0.12347248172483088,30,28,69,76,3
0.0002343845996126086,0.0008479137781058499,0.03325893516139409,0.1292864073728808,32,28,68,71,3
0.00024848154771406756,0.0008455459152483198,0.035554792370141246,0.12729849141207725,34,38,66,76,3
0.0002662702305331949,0.0008326639875206479,0.03832433323246819,0.12527208439466986,42,36,67,75,3
0.00023710010049368037,0.0008089643330228189,0.03739506713335425,0.12268180616244165,44,42,69,75,3
0.0002392298152681157,0.0007945784805067035,0.036568015139756264,0.11745495534819915,42,34,71,74,3
0.00024171326401463625,0.000774381794528499,0.0391024961955209,0.11729694951216321,40,34,71,69,3
0.00026972652971126213,0.0008797553867149705,0.03755226810457364,0.12344180721001156,32,36,67,78,3
0.0002988261827950162,0.0009150607606707683,0.04030683793240942,0.13207136067811284,32,34,62,77,3
0.0003116955764779868,0.0010789679838414568,0.040623435056972065,0.13754968664063125,30,28,66,77,3
0.0003057002738281111,0.001070579816251491,0.03921859603918305,0.14201702954188397,26,28,69,75,3
0.0002807020525821059,0.001044074752372129,0.038071124800967894,0.13393405369931785,30,30,70,66,3
0.00022650187911589753,0.0009366376416229115,0.0325046856117626,0.1230388140804643,30,30,76,72,3
0.00022698713616244544,0.0007231260541465116,0.031977538104474464,0.11123250459862663,36,32,77,73,3
0.00019566895483597474,0.0007808352985613549,0.028772216266978727,0.10759300568528592,36,32,75,74,3
0.00022025369531785424,0.0008334164567311708,0.029910851147201396,0.11197416250391476,32,32,68,71,3
0.0002326399930390893,0.0007723137302331081,0.029757679393416003,0.10342584089475666,28,32,70,70,3
0.0002142877711296035,0.0008143394282839974,0.028088032795038964,0.11134865762657468,30,32,72,68,3
0.0002035268672754945,0.0006703214846002172,0.028812174914604506,0.10427917008586103,34,36,73,67,3
0.0001681432384589897,0.0006774544624689345,0.027325178867175625,0.09726381020064297,36,28,79,67,3
0.00016541412991273802,0.0007220480131847705,0.02722043221051754,0.09191063410425343,36,26,76,66,3
0.000145432391326333,0.0006353976068932349,0.024429378085674133,0.08687070830005418,34,30,76,76,3
0.00015058222113059616,0.0007033267586372369,0.02420645290081228,0.09373610542606921,34,30,79,76,3
0.00016940744784437275,0.0007931775014928597,0.023333595897830295,0.09677803975692305,26,30,76,69,3
0.00019203181851998793,0.000762229576707428,0.026643043171880574,0.1039879919525227,34,34,78,70,3
0.00021700122206019416,0.0007968669848127186,0.029264612382233556,0.108013148109325,30,34,79,69,3
0.00019570716305087842,0.0007164983800956033,0.029174732534997822,0.10932723204347142,32,36,75,73,3
0.0002082597501557267,0.0007513770271922981,0.03224689294026709,0.1181427971317339,38,32,79,78,3
0.00020751671101915464,0.000655216714274338,0.031815505182461665,0.10818674876826413,32,36,73,79,3
0.00022832804041669774,0.0006432238126891404,0.033671327650369134,0.10240542064601553,36,32,74,80,3
0.00022545065802855382,0.000694708335121284,0.03505912125119899,0.10166454957669716,34,24,78,81,3
0.000219878362683913,0.0006805994917225115,0.034775651282603626,0.09559862806652349,38,30,80,81,3
2.9338055978452918e-05,0.00013707859093142982,0.0033635998308929045,0.010163470774963615,29,20,89,66,4
3.0221866493563032e-05,0.0001282188356298325,0.0034123528627436504,0.009609618817336666,34,21,92,71,4
2.8325526812025024e-05,0.00012961049640270068,0.0034169348526241136,0.009399804552172895,25,20,101,75,4
2.8015003118971212e-05,0.00013370796024717388,0.0032147327302193772,0.009236126787687106,22,20,98,73,4
2.7103342694028954e-05,0.0001317071650179105,0.0032080886864612797,0.008905188013510998,24,18,96,68,4
2.9189531814561184e-05,0.0001339902915313585,0.003272224971569859,0.009332837112469562,20,18,91,67,4
2.8529729641976762e-05,0.00013936358728972693,0.00324412829980049,0.009200051836907011,26,22,82,64,4
2.7248127667702044e-05,0.0001324482812724351,0.0033774118440062662,0.008899446899772354,24,23,86,63,4
2.5678075815644744e-05,0.00013574220635968168,0.00317747112618597,0.008497558886367555,26,16,91,69,4
2.5981813651344553e-05,0.0001406897648083879,0.002970099463529053,0.008313193534082143,24,20,100,62,4
2.8799431420163764e-05,0.00013578996361906482,0.002948072650757191,0.008458986517035624,17,24,95,63,4
2.670134174577834e-05,0.00012802616746255348,0.0026456211836759867,0.008237751054580127,20,22,91,63,4
2.8082031524426183e-05,0.00012996477513690398,0.00280884698172266,0.008321934949965044,25,24,84,67,4
2.9458010250770818e-05,0.00012608178931543975,0.002761193969071509,0.007983782575677351,26,16,79,73,4
2.8211047803905157e-05,0.0001274407083236147,0.0028040429377776373,0.008286796516695739,21,18,82,61,4
2.9040320931707025e-05,0.00012633084853176622,0.002868134414523231,0.008289688876268941,20,14,88,64,4
2.9264556580689197e-05,0.000130004916914487,0.00301609586910628,0.008466807789904208,23,20,91,56,4
3.173879019451391e-05,0.00012710350543238084,0.00311833768835845,0.00820220846932188,22,26,95,63,4
2.7333251181677363e-05,0.0001221982472674029,0.0031917742091561612,0.008037913608138264,30,22,102,61,4
3.062151020504279e-05,0.00013077857465756764,0.0032125729592482797,0.008750257435818925,26,22,102,65,4
2.4384018125919303e-05,0.00012855592989404,0.0030457075333645803,0.008507339285458597,28,24,101,65,4
2.5103311898124668e-05,0.0001272302153776906,0.002976612767667858,0.00887122561970107,24,22,104,67,4
2.6697754719605353e-05,0.00012709163018942866,0.0028968451118938816,0.00886921179041936,20,22,93,77,4
2.5392213705291334e-05,0.00012359864549385833,0.0030640358267479922,0.008603651042122209,24,26,96,71,4
2.5964331979270277e-05,0.00012580794592871591,0.0031774994007430636,0.008452141234250858,30,24,96,69,4
2.699175174341393e-05,0.00012457555191990543,0.0032856615987036297,0.0082514056784901,26,24,90,59,4
3.1806123891912456e-05,0.00012153038415728453,0.003423356387987677,0.0081107490431062,33,20,84,58,4
7.229321162461614e-05,0.0009694724645152868,0.005572285152823855,0.056775653676782764,16,4,77,48,4
0.00034774463823332636,0.0015841308693902714,0.02039034519359349,0.08562533936621433,6,7,58,20,4
0.000361387893884736,0.0015400349805118935,0.020345869845960988,0.08203986849199946,6,6,62,29,4
0.00032575893662205617,0.000810472837782652,0.018129757218276955,0.04177169277909563,4,4,82,76,4
0.0003097044428434387,0.0007476923809321788,0.017730209042745863,0.04025327014603893,3,4,72,74,4
3.105855526384069e-05,0.0001180182227232162,0.004267462281099584,0.008280631541647474,30,22,88,60,4
3.662564111425274e-05,0.00013055226834137037,0.004771544884103404,0.00896372285329061,23,22,84,60,4
4.017084868029493e-05,0.00012202480939992353,0.005258794599799506,0.00883338150793789,28,26,83,52,4
3.7722999679173245e-05,0.00012765861737092497,0.004877602956059764,0.008453049219045517,25,24,92,63,4
3.605645737052435e-05,0.00011526283642423682,0.004525701872994852,0.008143163198321375,20,26,84,62,4
3.0396495207010884e-05,0.00012123182417151225,0.003942869176157843,0.00781168723268781,30,18,88,62,4
2.6846858588636874e-05,0.00012373255550056795,0.003476798534299968,0.007850438643419689,32,20,92,50,4
2.670690626692481e-05,0.00012272568300717815,0.003531667556826067,0.007840219611045833,44,20,95,58,4
2.8819053670585882e-05,0.00012618892611562695,0.0037620833677160428,0.007612998943442697,34,14,92,62,4
3.0745839130632165e-05,0.00012038444939142515,0.003881235763127199,0.007557959288337087,31,14,88,65,4
2.7723633137718318e-05,0.00011810520778182336,0.004023985606384548,0.007569047244654357,30,20,85,64,4
2.668977990312246e-05,0.00011789199791445276,0.004133407583045739,0.007868114687405097,34,18,94,68,4
2.5057946600887648e-05,0.00013267106100870295,0.0038509712706166375,0.008155463008362798,24,14,89,67,4
2.5693029672006208e-05,0.00012584705557229002,0.0039332308120051465,0.008332551825385268,34,18,91,53,4
2.6446101896012157e-05,0.00013416952707380838,0.003720340984981738,0.008616521472210481,32,25,92,54,4
2.5246615467766922e-05,0.0001277833317093844,0.0034891046207508373,0.008329410679512244,33,18,92,52,4
0.00030678519890087755,0.00042731136072321816,0.043718554030946086,0.035906844563340735,30,24,73,59,0
0.0003145704712426749,0.00034482529955991425,0.03984931774102777,0.031601877036238804,26,24,71,68,0
0.00030854783631392496,0.00039286720600459736,0.03901392315608622,0.03505701243538094,26,22,77,60,0
0.0002932796525692311,0.00042706932473769,0.037246375387999936,0.037671257830733676,24,22,76,52,0
0.0002788745001279388,0.0003851453110624424,0.03593037680344912,0.03559689272258095,26,18,78,55,0
0.00029085785806573814,0.0004328220157108404,0.03720694989621574,0.03757522940029252,24,20,71,48,0
0.00028750222291749856,0.00039012321400033257,0.03876508048463244,0.03498451801075685,28,20,75,45,0
0.0003165812400685046,0.0004182918969754311,0.04031391387721956,0.035281782124359194,22,18,78,49,0
0.0003568534124221886,0.0005609268982216119,0.04393435434872136,0.039810053570835634,24,20,77,46,0
0.0005985758899478906,0.0016931119197681082,0.05541961648938294,0.09917548813120693,16,6,73,58,0
0.0006285093512245364,0.0016722375291983184,0.06212061341881159,0.10417660736048205,18,6,67,52,0
0.0006009705838484878,0.0015644117064552811,0.06191339104734631,0.10192902190778803,16,4,68,49,0
0.0003476662051635031,0.00040024035538282376,0.049157787992665625,0.05060091958588598,26,30,73,61,0
0.00040749180281334754,0.000376700655998491,0.05196487773577214,0.047822469324865786,21,28,67,62,0
0.00046898128943206045,0.00038944387282655117,0.04644772561534423,0.046383033777668996,16,20,62,63,0
0.00044336902803833824,0.0004344914033305223,0.04586103254918812,0.04616808889513769,30,18,69,62,0
0.0005521866651405081,0.00041334359054195186,0.04744104451263623,0.04493095105100872,24,24,69,61,0
0.00044695069555294076,0.0004725326976986612,0.046247463137958356,0.049197492390262595,26,26,74,53,0
0.0004298272840336767,0.0004679884076251708,0.04544420382613541,0.04813725153568965,18,24,74,59,0
0.0003878556615345999,0.0004688411767454384,0.04850371050339432,0.04930701400583623,30,22,74,55,0
0.0003438201852900963,0.00045024022582199443,0.048964843090433884,0.050264322538467195,34,26,72,54,0
0.00031426808462160083,0.00047419498765193565,0.0462722052118011,0.052914487201227246,34,26,72,58,0
0.0003056052643044186,0.00047905072967292746,0.04908659605631551,0.05559527201083731,34,30,77,61,0
0.00030901102627853944,0.0005533172551139743,0.04702382201328921,0.056583979281174604,28,26,77,62,0
0.0003332245724276178,0.0005742751725620961,0.049643052576432645,0.056188646723602895,28,22,76,62,0
0.00034816936282821203,0.0005904793024287328,0.0502424531616026,0.0562402421530634,32,22,75,60,0
0.00035582862372224565,0.0005364956805275702,0.050138499423673225,0.05239225424071529,34,22,73,67,0
0.0003615664815950046,0.0004861037447127213,0.05131664607945872,0.05280887535260227,42,20,70,66,0
0.00035286118669703543,0.0005677404990796399,0.04954712015099804,0.05503841140197958,36,18,75,59,0
0.0003474955601506687,0.0005891736188572825,0.05275256667903951,0.05286648146823303,40,18,78,53,0
0.0003084747576453038,0.0006281939436224115,0.04883502540845194,0.05527145588272058,30,20,86,51,0
0.00037450617244444537,0.0007287229077093945,0.04823794629909189,0.05793938838491123,30,16,86,49,0
0.00032325868358521137,0.0006698188433936513,0.04855422327764334,0.055369409107193894,28,18,82,57,0
0.0003354684553691432,0.0007847499855193101,0.047785317839542416,0.05556573960036286,32,16,81,53,0
0.0003429344720775872,0.0007619688707056849,0.04770899660497145,0.05295770416681502,42,20,77,59,0
0.0003329998944781725,0.0007142690516053059,0.04587531258904937,0.05386028394693617,36,18,78,61,0
0.00033955805213359405,0.0006489646279096979,0.05274487919752834,0.05294493591916262,42,18,77,52,0
0.0003556403426336826,0.0006781316517193449,0.051365558470889174,0.0528854538197995,44,18,77,56,0
0.0003734370885829432,0.0007647696694818738,0.050377662682044785,0.05973589345579696,32,16,65,46,0
0.00038635812751737275,0.0007089575571322948,0.05153638167812742,0.05094926594641161,40,14,59,43,0
0.00039343570036386513,0.0007125809834416525,0.04820312207592791,0.04740306219687413,32,18,62,50,0
0.0004083132311626477,0.0006603379790163957,0.04990475060363745,0.046514325176378594,26,20,70,55,0
0.00036287800750913987,0.0005306393868929793,0.04930770737465096,0.039373974570301985,26,20,76,61,0
0.0003823485538650452,0.0006249330825384234,0.04820875681381118,0.0450578820624408,24,24,74,59,0
0.0003306695135644501,0.0006631559999287247,0.049477241109651016,0.04597795459867508,28,24,72,55,0
0.0003018817910189912,0.0005975712686349081,0.04629570885420138,0.04497456478109325,32,20,78,57,0
0.00032765178870861506,0.0005801838470897556,0.050343523112959206,0.04528700980804917,30,16,75,61,0
0.00035471398130180597,0.00048488603675019617,0.04980671539139043,0.04073592332167999,32,16,74,66,0
0.00034050078749654463,0.0005319724862881366,0.04589642680878846,0.042973433656460926,34,16,73,63,0
0.0014314741407550234,0.001197921485006168,0.1933496833059191,0.15045502083773896,36,26,70,67,1
0.0014811748217263465,0.001171694087463784,0.19325530849623132,0.13711856787520277,26,24,67,58,1
0.0016887021969006634,0.0010815808421018357,0.18948815850366404,0.13405206386287022,28,14,67,69,1
0.0015342379721993212,0.0014520997047620455,0.19036653535273687,0.17197154457863392,30,18,68,64,1
0.0015138608673362797,0.0013319379266142695,0.19423103548475934,0.14209220611338086,34,18,66,73,1
0.0013899393965619044,0.0014529066463200202,0.19187087192489444,0.16364201503370376,32,18,68,69,1
0.0014086757250377166,0.001519576216822258,0.20968487892051135,0.17643023928337417,34,22,68,60,1
0.0014389929966919107,0.0013596139940416226,0.21452235153135443,0.16609262109625028,38,22,73,62,1
0.0015527508585711604,0.0014787569947026368,0.21955551804808157,0.1881114611573994,32,24,72,59,1
0.0016214434556699314,0.0014190890565785744,0.21316303458832397,0.1825655979986127,32,28,68,66,1
0.0015058167187492748,0.0011260391311224765,0.19405315889818223,0.14505763479101888,30,26,72,72,1
0.001417528889461491,0.0009454595875113343,0.17689124314393445,0.1228384413493855,30,22,67,71,1
0.0009878498960952627,0.0008410840494853431,0.1466343353677779,0.08191493133173604,28,20,71,65,1
0.000911864587880266,0.0007388910412654956,0.1452840776909047,0.08049501584962847,36,28,73,66,1
0.0009491371821822522,0.0006861698447095458,0.13664990178787265,0.07496546802905221,34,26,73,63,1
0.001152896598939832,0.0006748158253497303,0.16614984529038254,0.0739505249977485,32,24,68,66,1
0.0012552216388498302,0.0007389345800181185,0.1782793026301504,0.07424677886431036,30,22,65,73,1
0.0012328610429752152,0.0008043425418788014,0.18369194792906965,0.08387434105499245,38,18,66,72,1
0.0013815733893834375,0.0009018193973939433,0.20595726166136843,0.0988164080874273,36,18,72,68,1
0.0012521036952351445,0.000982506668185852,0.19089875227819023,0.09992244410960043,36,22,74,64,1
0.0011894519231340722,0.0009816470371987072,0.17740295293590463,0.10349428623183422,38,20,72,66,1
0.0011689136349930854,0.000884979705000896,0.16457531467721045,0.0969879262353175,28,18,66,70,1
0.0011132232706352809,0.0009663621468867343,0.15735753806559064,0.10460575035236046,36,20,68,63,1
0.001168837772444269,0.0011736447960079069,0.15942001436830078,0.1194784581113162,36,18,69,53,1
0.0012236436941149176,0.0010762748880450185,0.16417339252563412,0.10797711553646566,40,18,71,53,1
0.001183801522851876,0.0010782446748185568,0.1703060027249862,0.11691768369886744,38,16,72,43,1
0.0012088068407143076,0.0008745092530231895,0.15998392820874396,0.10038321118758156,32,22,76,52,1
0.001180413380505499,0.0008096562728324587,0.170305453455956,0.10249775650771419,38,18,81,67,1
0.0012131116628406916,0.0009854054507162154,0.1616817713365075,0.11696052921037701,38,22,82,59,1
0.0010912693345248648,0.0009208047347299369,0.1535503802641116,0.10603708230622175,30,24,88,64,1
0.0010372185112149349,0.0008718757110815628,0.14244089878193908,0.10238097165407044,22,24,82,65,1
0.0008415313059080015,0.0007895943895823386,0.12125375499781314,0.08696807978386956,34,20,80,58,1
0.0007830007872614037,0.0009355527773903583,0.11690929924618496,0.09061334918349762,32,14,77,56,1
0.0009635663675084281,0.0010371564962178914,0.13614816020293133,0.10583605632014614,36,22,72,59,1
0.0010564553021598483,0.0010858221854158374,0.1426571412856137,0.11004861019673048,34,16,69,50,1
0.0012668468112201812,0.0009852041876796628,0.15949372326721858,0.11376844212876687,28,24,65,61,1
0.0012972680639490044,0.0010069162626911415,0.1650650573715533,0.10715272549199842,32,18,64,55,1
0.0010774703378028173,0.0009385891954788306,0.14859946074938069,0.09473978175300761,36,20,66,52,1
0.00117036056575673,0.0009791943061582989,0.15795979403179758,0.09164038108363276,34,20,64,49,1
0.0009448205704443419,0.0009207286485201864,0.14132288996339598,0.08763713916781837,40,16,69,49,1
0.0009242827394859972,0.0007723693872040916,0.12746813046909533,0.07756025831894053,32,20,69,54,1
0.0008857794229723948,0.0007303892461494123,0.12665279050200506,0.07694412998469106,30,20,68,53,1
0.0007561814382530365,0.0008301081872555912,0.10708059941759553,0.08624006864798818,30,14,70,47,1
0.0007610166384109164,0.0007033939190235781,0.10742104227825326,0.0726838365371502,30,14,62,62,1
0.0007229106869386747,0.0007736985149834774,0.10293439204650207,0.06968160388555311,32,18,64,57,1
0.0006880625270220611,0.0007569032668341752,0.09730929452726131,0.06358427166404604,34,14,71,61,1
0.0006603947838077377,0.0005832809757388907,0.09824670980396934,0.05385712811609231,38,20,76,60,1
0.0006316252187603837,0.000648167478530826,0.08645279530615418,0.058342998993827444,34,20,72,57,1
0.0005784958699645734,0.0005510566866636812,0.08027108926771608,0.0542868346723945,30,18,72,60,1
0.00042602285240333153,0.0001781916930475718,0.07128003311304897,0.018747327328082476,32,22,82,67,2
0.0004933349193217094,0.00021054051880520735,0.07574126430536217,0.01948844229772777,28,23,78,74,2
0.0004929830444495737,0.00022289222320398975,0.08440366014612062,0.020295464115987007,34,18,77,70,2
0.000523113922000095,0.00021165304938879808,0.08965551149575106,0.02052748604523265,40,19,74,66,2
0.0004919299554614358,0.00021822354019443053,0.08438755983124839,0.01983917520184836,36,26,72,67,2
0.00047652375379536046,0.0002180267582712299,0.0839443349371686,0.019539629781808808,42,18,72,68,2
0.00048445699625214797,0.0002520857830782536,0.08349531180862932,0.02110248022374965,42,24,73,63,2
0.0004890908891549274,0.0002397224817865851,0.08330257124162203,0.020785588301783328,40,23,68,60,2
0.0005700474398543904,0.0002501049725525021,0.09475353706987046,0.02236548575517631,32,22,69,69,2
0.0006204624775043473,0.0004302568086722635,0.10435032731213442,0.03164880399024646,38,18,70,61,2
0.0007843649589720315,0.00044171410546896815,0.12280890573292633,0.03331310260292122,30,16,73,63,2
0.0008545844039831536,0.00047011960964416926,0.13895504069388573,0.03550187414609621,34,20,79,65,2
0.0008369147331417505,0.00028378150238395837,0.13538830757096976,0.02856493233083982,36,20,77,72,2
0.0008747660013165966,0.000281910025562403,0.13255612061270522,0.028287306812557585,30,20,76,68,2
0.0007226637719761932,0.0003019150838018913,0.11170069810974818,0.027996112240434072,26,18,74,67,2
0.0006107172696695717,0.00032197634999123925,0.0910194383912733,0.02704351422748706,28,18,74,63,2
0.0005402080492108221,0.0002935914459536893,0.07507298528842549,0.02526779036972874,26,26,75,61,2
0.0005201496073619546,0.0003395437276491713,0.07369285931122146,0.027688833722454755,32,26,76,58,2
0.0005355387018444141,0.0003728166497293556,0.07989824050515335,0.02776458028447512,30,20,73,58,2
0.0005344624068713891,0.0003625391018998121,0.08406991607590553,0.027807873169102833,38,20,74,64,2
0.0005576598869197849,0.00036527457869738646,0.08838307356844873,0.029158315638772324,34,24,71,72,2
0.000540433754959159,0.0003451151622269581,0.08528580135771383,0.028643719795801617,40,20,72,66,2
0.0005341454466522293,0.0003183347500424368,0.08206726414940511,0.026185768436384,44,16,71,70,2
0.0005580007480660242,0.0003228982202498759,0.0846905098294988,0.025558447773472916,38,18,70,62,2
0.0006147960417751139,0.0003366971772733995,0.08705729170110774,0.025210009711632942,30,14,74,64,2
0.0006091042922477195,0.000331793398393057,0.08495225831258975,0.023666717943550204,30,14,78,49,2
0.0005796393225452725,0.00031087239587329564,0.0799985777074055,0.02357639364580914,26,20,82,54,2
0.0005309516964775989,0.00026951241850538103,0.07926638164126937,0.022580308500567702,36,20,80,60,2
0.0004524368486012175,0.0002457356611623142,0.07372600967756975,0.02135308327391325,38,22,82,64,2
0.000435195252931921,0.00021913082680766793,0.0704873823006397,0.02041772205489218,42,22,80,67,2
0.00042962037667551014,0.00021773404527246102,0.0709779990686142,0.021265299394129536,34,26,78,61,2
0.0004565370922420559,0.00021629851171800686,0.06848185604134648,0.01916100803195336,40,22,76,63,2
0.00042087698050256547,0.00021777692681104383,0.06514809668704617,0.019970802100417556,36,18,75,58,2
0.0004936137925739986,0.00021528994147320394,0.0721604401545508,0.018742200902612836,36,24,69,68,2
0.00047398866159713597,0.0002084481744778642,0.06964830508893328,0.018152235750142517,36,22,75,64,2
0.00048522016025659377,0.00021673475290117928,0.07149969044299341,0.018761723499132372,22,26,70,65,2
0.00047977870325107726,0.0002456955795720508,0.06954042243114276,0.01814702876157051,24,25,74,62,2
0.0004611933139667153,0.00030132047406592806,0.06383921313015194,0.01991348404428366,28,24,76,57,2
0.0004508410509889655,0.00028146186646469616,0.06310520945322012,0.018424009930618126,28,21,75,61,2
0.0004142494209236195,0.0002518722354831428,0.06443445338232778,0.01743681130028621,30,16,79,60,2
0.0004044911243942053,0.00021609863362044118,0.06894231561817384,0.01698894313360826,34,19,79,68,2
0.0003986403959420246,0.00016985343269457304,0.07019221542087402,0.015784729859323474,36,20,78,74,2
0.00042416353531142753,0.0001804625658983779,0.0719349854431163,0.015932782728709415,38,18,83,63,2
0.00043565383785453736,0.00016963934453417245,0.06901777169846962,0.015805063500966478,38,14,78,62,2
0.00040698237171664777,0.00019062240253596636,0.0658028905921152,0.01491884612133865,38,16,79,65,2
0.0003757505939937227,0.00020027205456098484,0.061673266214102566,0.014595361130294042,40,16,82,63,2
0.0003510647627011181,0.00018170167783097677,0.05569024692497118,0.013817802929920268,34,21,77,64,2
0.00030482425665355614,0.00018727001986809002,0.04998015133353102,0.014047008650891467,42,16,80,63,2
0.0002947387428173372,0.00017276504722421493,0.046294918820873644,0.013036784135417845,34,17,81,65,2
0.00016567153137366707,0.0005949008005538032,0.02736164153565328,0.09503198283356125,44,34,84,75,3
0.00017369674601384815,0.0006359960860602619,0.026165400263534255,0.0948956598190517,40,40,78,76,3
0.00017222517758724452,0.0006445976428524672,0.028098651187285602,0.09969856507370921,38,38,78,74,3
0.00016717709795664498,0.0007230779363868088,0.02804618651244796,0.11107563022932251,38,36,74,76,3
0.00020884496090421361,0.0008135562825168266,0.03407705973657992,0.12405379824088526,38,30,71,74,3
0.000220571188683557,0.0008815342828272048,0.034721479686885874,0.12856949707336096,36,32,74,73,3
0.00021961151820448443,0.0009887754647940788,0.034590247819954824,0.13088612778151545,32,32,73,68,3
0.00023939863115776496,0.0009565821388349357,0.03432091594882758,0.12688188190088737,30,28,72,70,3
0.00023027145537308488,0.0009601171543961147,0.03148480589040161,0.11663390874897413,30,30,72,74,3
0.0005235655267192384,0.001381185266114555,0.04643831675111833,0.15196425762039817,10,22,67,62,3
0.0005471078468118168,0.0012994247163684758,0.04808123114583589,0.14296312209402884,16,18,68,67,3
0.0005533829616203464,0.001353410229332931,0.04977748042707918,0.14001485736359395,12,18,69,67,3
0.00024260074356978142,0.0008821162368593949,0.03902817247647413,0.1227452290787741,38,28,74,68,3
0.00024374404712238968,0.0008293429887022591,0.03998329204975161,0.1085242691880825,40,20,75,72,3
0.00023176663603069044,0.0008587655033508714,0.03786341588758768,0.11039776498453167,38,26,76,69,3
0.00023463558088637887,0.0008773213775797599,0.03734774695657876,0.1170393845648335,42,26,72,71,3
0.0002405539435920465,0.0008095264999675725,0.03356914316734672,0.10903822441859012,28,30,72,70,3
0.0002232136118351999,0.0008343356332888276,0.03310864834558807,0.11515702031000341,38,28,80,69,3
0.00022229730305932207,0.000830995851924282,0.03332950756769764,0.12134431986989602,34,26,79,65,3
0.00021677482061245858,0.0008401607610499831,0.03278333729172681,0.11351127112660635,34,24,76,69,3
0.00022720000934258093,0.0007511123552116588,0.03508972866908937,0.11318545262639723,38,24,80,65,3
0.00022457047190090485,0.0007592310975640184,0.03530412686356668,0.10997733706343484,40,30,76,66,3
0.000221646735511824,0.000686732365352631,0.03330081432514204,0.09873742973695321,36,30,72,68,3
0.00019499032207554137,0.0006359851653398209,0.029049050037037585,0.08835539609835062,30,36,78,65,3
0.00018809460786841425,0.0006313143863164665,0.027985360079704903,0.08194859462997738,36,36,81,69,3
0.00018656726369627215,0.0005836492329134867,0.025041013716164805,0.07714510739997205,30,26,86,72,3
0.0001861372132714508,0.0006251874219450483,0.026543343161689263,0.0796007824684219,34,26,77,74,3
0.00020516378644745093,0.0006504281359122788,0.030661625222199687,0.0876637975647824,34,26,74,79,3
0.00022752301402943556,0.0006903568675474948,0.034339982792414146,0.09582469873672413,38,32,71,77,3
0.0002588577650971604,0.0007779391069763295,0.03883357184022679,0.10426294550437813,36,28,74,72,3
0.00027518174730966976,0.0007327646773608498,0.04266667938348895,0.0995663308097238,34,28,72,75,3
0.00027170507555742426,0.0006934504689651748,0.04509308811235738,0.09492119249422427,36,32,74,73,3
0.0002683460923579442,0.0007471390633195281,0.042993879454408926,0.09561252875782679,36,20,77,69,3
0.00023960931147828902,0.0007204653714853161,0.039762165848495824,0.0935458250081096,40,32,73,68,3
0.00020680465564347164,0.0007017033540381655,0.034754548898915896,0.09352739383816074,38,32,81,68,3
0.0002158437831194343,0.0007455593862384058,0.030988236755222155,0.09834420180415744,32,38,80,70,3
0.0001965941256940574,0.0006728227857696974,0.02996752426904888,0.08999504301599599,34,30,83,73,3
0.00019445893719055514,0.0006255642478453311,0.02891788845926007,0.08632827071444822,30,32,79,74,3
0.00019754235951001446,0.0007359394044239701,0.028257156984980415,0.10005125435388265,34,32,79,75,3
0.0001860973147710524,0.0007087744102581278,0.02816159426241677,0.1042107858264211,38,32,76,71,3
0.0002083064663203856,0.0006952334644861738,0.029302400198615915,0.10446866309459293,36,36,78,74,3
0.00019603247949758957,0.0007561203589228829,0.029363535789309426,0.1089670523754237,38,30,76,72,3
0.00021020837013952017,0.0006722379364010561,0.031677460419615645,0.09604579661492028,36,28,80,68,3
0.0001950580748275811,0.0006577037603341364,0.030257955476269794,0.08781033269224879,36,28,75,67,3
0.00017648390925531423,0.0006345590493106317,0.02747467673301038,0.07952313733653381,40,28,74,66,3
0.0001801645979000771,0.0005807406691653152,0.02911880663316094,0.0777205903113853,38,36,72,66,3
0.00016821422606343007,0.000570397477061846,0.02748108008293791,0.07800086071087378,44,30,72,71,3
0.0001555214949575096,0.0005335474215332237,0.027846677848597318,0.07842340041914111,42,28,75,75,3
0.00017352656082429216,0.0005957297001768245,0.028746092253525157,0.08782262094632716,38,28,78,72,3
2.5747925342609682e-05,0.00014612687006340544,0.003074801148544389,0.009314328236909189,30,16,101,62,4
2.5278196079743402e-05,0.00014633304989146768,0.0030684129908491085,0.009373816169372332,24,23,99,60,4
2.5605049076066168e-05,0.00014408927213759053,0.003210831772814919,0.00932799697945797,34,18,101,56,4
2.2907952190272203e-05,0.000144027346904431,0.003087722922163481,0.009176236615551149,30,22,98,50,4
2.252333341961828e-05,0.0001427275355597689,0.002970022215627827,0.009085196549610009,40,16,95,50,4
2.338457638286203e-05,0.0001408974008022811,0.0029730320014212243,0.009006843739899325,28,18,93,58,4
2.308169762089491e-05,0.00014093449744243672,0.002900923157154066,0.009102534685185569,24,22,101,62,4
2.109666583667962e-05,0.00014078344197402174,0.0029927055702266554,0.009055055159246433,38,26,106,66,4
2.1176557779800556e-05,0.00013958995464239115,0.00303462427207555,0.008904823132233963,42,16,106,68,4
2.2821858024761166e-05,0.00013862204202996542,0.0030222245656205396,0.00885447260564745,34,22,98,68,4
2.137960561681258e-05,0.00013977702668392138,0.0028558489079712245,0.009031261376142756,32,22,99,66,4
2.24234311232599e-05,0.0001382046189317001,0.002770715491289887,0.008972217366038248,28,22,94,66,4
2.214072132767387e-05,0.00013871758432819605,0.0028322534657515175,0.00916576352395225,32,16,97,68,4
2.3747430566302133e-05,0.00013768401090210366,0.0029286302349666015,0.009180790512466673,28,22,104,64,4
2.7955847179045915e-05,0.00013817902244756162,0.0033174587010547842,0.009202250292418168,26,20,96,66,4
2.770350827457555e-05,0.00013957579672404925,0.0032811618806242457,0.009137521790447278,18,24,99,64,4
2.7931842147212077e-05,0.00013842165553548642,0.003344510996937865,0.00892611652521874,32,20,91,64,4
2.732393153981907e-05,0.0001404035098537638,0.003429424449958272,0.008959153017618378,34,24,83,60,4
0.00023378968263284685,0.0002820526613167269,0.013646544269406416,0.016336912705531496,4,12,84,31,4
0.0009478800484303721,0.0041195837426795875,0.0503309339470474,0.2356615420632411,6,4,45,58,4
0.0010028996152573316,0.004336366094892407,0.051775001423832075,0.2376346088093,6,4,48,66,4
0.0008465095745698717,0.004285670550790033,0.04455899588200757,0.22900252849522132,4,4,70,60,4
0.0007727287444908834,0.004011344938549866,0.041508451914653674,0.218688715704529,3,3,53,54,4
3.765853570469346e-05,0.00013095384268106743,0.003982093802345259,0.008390271023075015,25,22,98,60,4
4.6804894779735075e-05,0.00012396989728821612,0.0043887022547701195,0.008316686591847816,30,22,97,56,4
4.3912658310952336e-05,0.0001268361460465055,0.0037594828820076837,0.00833025247088794,28,22,95,54,4
5.7359145360932456e-05,0.00013275971481830894,0.003840889530141325,0.008236720872895203,14,24,85,62,4
5.898979743238047e-05,0.000130701117935926,0.003597612666656269,0.008300334462827524,18,18,90,56,4
7.142193651022737e-05,0.00013323893366229091,0.0036960950043669494,0.008394563725092853,14,24,82,52,4
7.497318584265633e-05,0.00013722966266283964,0.0038473363003029854,0.00912275245631242,15,20,93,55,4
6.328133784265151e-05,0.00013282158536465812,0.003866555638096747,0.008801988744272947,22,22,95,56,4
5.922930838259725e-05,0.00013167232307211596,0.004048624761276292,0.008880319855624449,16,14,92,62,4
4.561020339422007e-05,0.0001278197562975426,0.0037218924496401854,0.008863441092018922,16,20,86,60,4
3.781876339804323e-05,0.0001319304307383469,0.0036597478234899608,0.008578846767414095,28,16,93,56,4
4.148896519796141e-05,0.0001335252088056553,0.0036193283615173232,0.008565362686934152,20,16,89,52,4
4.406312267696261e-05,0.0001327695165045205,0.0036235183910886637,0.008653933331049185,18,18,94,52,4
3.932477314894605e-05,0.00013281036483389836,0.003662500967233474,0.008602223540644183,14,20,102,50,4
3.5422355007514556e-05,0.00012506674222922517,0.003675283430635667,0.008481130280938862,23,18,102,62,4
3.094077973900741e-05,0.00012699009498857075,0.0038182031849834652,0.008716444604001235,24,24,100,56,4
3.1232864062419144e-05,0.00012140781869280009,0.0037748646313985708,0.008412147067344488,28,20,104,58,4
2.79391214053543e-05,0.00013088332148168536,0.0036222850228122706,0.008884912796947583,32,26,99,60,4
2.7431614525896968e-05,0.00013340477862907015,0.003569068457176626,0.009078191534083598,30,18,100,52,4
2.658762393779792e-05,0.00013141963331774712,0.003545029520581218,0.009123561019472239,26,20,94,58,4
2.631578044099861e-05,0.00013146969270110093,0.003575101080357033,0.00902664473651556,36,20,89,48,4
2.9208043403345607e-05,0.00012403445641982004,0.003452807399072018,0.008652706009119559,22,22,86,50,4
3.3831626024814624e-05,0.00012713301534772955,0.0035766692952361972,0.008495231185313626,20,20,86,56,4
3.0493860567372098e-05,0.0001263780352528302,0.003538397382207153,0.008279454348373166,24,22,92,64,4
3.4284011149602196e-05,0.0001280604424681196,0.0033671080013773147,0.008478285758686123,16,18,94,64,4
3.7015538330243674e-05,0.00012952262230509157,0.0036668601663522138,0.008536239551018471,24,20,98,60,4
0.0003477606883450251,0.000440174805336394,0.04868213519003713,0.044029287242619224,10,16,78,70,0
0.00035469338062566516,0.0004428676061312278,0.045705601291247344,0.04476286541323251,12,20,82,71,0
0.00035314287988222055,0.0005057213007539453,0.04705534009869958,0.044851818326685174,20,26,81,63,0
0.0003122419193240079,0.00048281810118335183,0.04475975248788046,0.04575117414178403,28,22,83,64,0
0.00032295167085833257,0.00048077834021767956,0.04344382225046017,0.04510542047840648,30,28,86,66,0
0.00032514198637384787,0.0005152062205021179,0.045275399451412894,0.04467433946588278,34,32,82,53,0
0.00029417068264756826,0.00048262540769352194,0.04045437687190167,0.04667030017185861,30,30,88,65,0
0.0004002815319621133,0.0005440698615051206,0.050613751851206215,0.04556299547285155,36,32,78,51,0
0.00041506385371754546,0.0005405446461007185,0.05399519408127948,0.04377584004508896,36,36,76,53,0
0.0004240231415132825,0.0005237456283783366,0.0563804952273469,0.04371118154507095,36,32,73,63,0
0.00046106265530918407,0.0004821738924155234,0.05851291622332806,0.04368284892944561,34,32,67,63,0
0.00041063977203563656,0.00043767180565170284,0.05307780469396724,0.04433167246800361,28,32,70,57,0
0.00031862362814999765,0.00047026634886798127,0.048649656329838926,0.048963372992660965,30,28,81,56,0
0.0003102769255826025,0.0004890350935986217,0.04531306183471178,0.04901895129041604,36,30,83,57,0
0.00030167879366060153,0.000568949904699496,0.044179184481935835,0.05201223040711432,32,28,85,46,0
0.00029954274859449333,0.0005550025869974267,0.04283585671982064,0.05303309488913364,30,24,86,45,0
0.00032572969385914654,0.0005705322671854634,0.04343728854256834,0.04846642428450843,34,32,75,53,0
0.00034649582992565256,0.0004874183135207495,0.04803313605438974,0.045594300324737706,32,26,70,60,0
0.00038489368007311146,0.00045673357641136224,0.048827884590864866,0.039671672259031544,28,30,65,59,0
0.0004018222957039704,0.0003850871469593693,0.05409968671138685,0.03538422969281999,30,26,63,60,0
0.0004106468674301445,0.00043933352262935687,0.05395821767211116,0.03887986252639562,30,22,65,58,0
0.00040151303214950104,0.0005251277158366833,0.052746032643307884,0.04154352907397278,28,24,69,55,0
0.00042482360194800593,0.000489189376003903,0.04986098536279791,0.04053886482496972,36,26,75,57,0
0.00034046027304287336,0.0004851166012274797,0.045403012910621855,0.03888054356587524,38,30,75,57,0
0.0005396413874748961,0.0007101766970140451,0.08372947993742852,0.05528723375582791,28,22,83,51,1
0.0005839319843756606,0.0006344245007374735,0.083673177072863,0.05644430338374654,30,22,76,51,1
0.0006851229223228528,0.0007224041707333822,0.08811547176613574,0.06537213769012735,36,24,72,50,1
0.0007420538314650871,0.0007458359735610369,0.09839175594502175,0.0661782110839026,38,24,71,51,1
0.0008178921422646988,0.0008876952871301462,0.1054456718319385,0.0741920343730412,30,24,68,55,1
0.0010895594423623188,0.0008565991731980686,0.11455082555931771,0.07370097992912468,32,24,65,53,1
0.0010496663099073087,0.000824465303746968,0.12195756240631098,0.06813233683116854,32,22,70,64,1
0.0010869972018453782,0.0008447589187594907,0.13084201187493882,0.0743788806410837,32,20,77,59,1
0.00125731646719761,0.0008344940558444244,0.15187126010608726,0.07727139921590276,40,16,73,63,1
0.0013029757582468818,0.0008986273281416411,0.16930899522283263,0.08309841890273617,40,24,74,62,1
0.0014264200827852264,0.0010284652371510715,0.1877911101764964,0.09930527722972707,38,30,74,52,1
0.001664080304600904,0.0011880419958556745,0.20987205084176602,0.11659365570362402,32,28,69,56,1
0.0017359842471944258,0.0011794572613417792,0.20873758915012455,0.12153999843204837,34,22,69,54,1
0.0016153524628762757,0.0011559737729776136,0.21300810800079095,0.13033317384714688,32,18,70,59,1
0.0014467211682784584,0.0012321688931894847,0.20497245660758925,0.1317639526656523,34,18,71,61,1
0.0012080546768855024,0.0010947350187061847,0.1799862355135131,0.11881720417706164,34,18,74,56,1
0.0013782863572766174,0.00115065136840786,0.19061522639803807,0.12072207457464854,32,18,71,56,1
0.0013375067341541299,0.0013382323991556653,0.18256460934350086,0.13108747905285378,30,22,73,45,1
0.001311805870627052,0.0013264020581958246,0.16922417012391686,0.12234199673482467,28,20,69,46,1
0.001382325221064741,0.0013704265742744634,0.173966199065434,0.12898793861470634,34,18,69,54,1
0.0012845950672014264,0.001478011943033843,0.16268373618397863,0.13083455412318515,34,18,70,57,1
0.0013111002498886288,0.0013462739945062573,0.16409140604535405,0.12768802304243054,30,20,67,62,1
0.0013402889968412237,0.0014571821934356336,0.1697449743247488,0.14043769178547585,32,22,74,66,1
0.0013558209596954167,0.0011995905593203812,0.17964857694152014,0.1279211317573505,32,26,65,69,1
0.0007874964853694392,0.0003368629164707616,0.11647551422944533,0.029331911555850937,42,19,83,65,2
0.0008462220959726763,0.00033534003307028,0.1248336541137149,0.02873973933080409,36,22,81,64,2
0.0008927059511761666,0.00028731826518061114,0.12959404015611276,0.024986434141660692,38,27,77,70,2
0.0009166309662646352,0.0002650652402429408,0.13335604796031936,0.02498778028525322,36,14,79,69,2
0.0008175468396073184,0.0002639339621172105,0.13294117839386896,0.024592950910972418,38,22,73,66,2
0.0008584782919907827,0.0002875578715657553,0.12988936475667467,0.025672210817082895,34,22,71,60,2
0.0007359839702626657,0.0002655689759133563,0.12289095672490108,0.025799053491953768,30,23,79,59,2
0.0007146861602822259,0.00023853183063584935,0.11882332284288774,0.02424705355768431,30,22,80,63,2
0.0006699544028781073,0.0002575979987534134,0.114270373070162,0.025485540341333258,30,23,74,66,2
0.0006061786824962865,0.00026168051625419497,0.10964299879092526,0.026029787564192823,36,16,76,69,2
0.0006487430583740296,0.00031519922301698916,0.11267331604886156,0.026980499728544872,42,18,75,71,2
0.0006578217355823365,0.0003786404706367151,0.11302726242239582,0.02997881232557916,38,18,78,60,2
0.000613229386444228,0.00036649992633793816,0.10272595522269799,0.02879755150734976,36,22,75,57,2
0.0005645572403662657,0.00035941790965752883,0.09055874885334148,0.028963258746766377,34,22,77,53,2
0.0004965799621017532,0.0003637976181990314,0.08357878805691943,0.027466731990679144,32,20,79,58,2
0.0004935877950417579,0.00029517152856845745,0.0789719588684018,0.02584641980424196,28,18,77,62,2
0.0005509379480193686,0.0003048840153353243,0.08989133533843309,0.02547051861471953,26,21,78,67,2
0.0005602767629008213,0.0002546521682195134,0.09344822307215726,0.025016451999638426,30,18,80,64,2
0.000554556041077439,0.00028468474512474066,0.09304247352803754,0.02635620280113857,34,23,82,65,2
0.0005394512313780208,0.00031050849695753077,0.08975742044786915,0.027521928972776964,32,20,76,59,2
0.0005615035258823573,0.0003166382649146386,0.08587436020940574,0.025606809636469212,32,21,80,61,2
0.0004982447871587065,0.0003162811767062191,0.08218764398506608,0.023522607105424365,30,14,86,55,2
0.0004303570785223443,0.0002469492294356816,0.07303725395750392,0.02033913159914292,36,25,81,59,2
0.00041710187001245657,0.00022985141059285067,0.07078286111862585,0.018075013175243786,34,20,84,63,2
0.00020479664997957562,0.0007627480795054143,0.03289819224940008,0.1047239232459088,36,26,83,76,3
0.00018942295113876108,0.0007697507738168953,0.0324850879222065,0.10653761628245274,38,30,95,73,3
0.00019689652850684612,0.0007838606006939849,0.030751879023906227,0.11181021270140357,36,32,87,71,3
0.000203007358163337,0.0007695698787302972,0.03213104571277812,0.11002961980224107,38,34,88,72,3
0.00019800539576483726,0.0008052900224517354,0.03443141508030665,0.11184571532206351,34,32,82,72,3
0.00020227232802863911,0.0007813031045644788,0.033350077297797945,0.11521059175753856,36,38,84,70,3
0.00020238103222903166,0.0007765248910519641,0.031761345509688066,0.11019200029961151,32,30,78,69,3
0.0001808007200190703,0.0007375453708822466,0.028869860284189384,0.10428190769315303,28,30,78,70,3
0.00018403223254891506,0.0006586249421942974,0.027711907867065563,0.10176370026154866,26,26,73,72,3
0.00018985129939983798,0.00064763102661275,0.02764126244725459,0.10759264750931118,34,26,66,78,3
0.00020527755924879175,0.0006891212057292781,0.03088171899189999,0.1196406279950007,32,28,68,78,3
0.000215883600898646,0.0006771834342448815,0.031054726488759173,0.11454694708269682,38,28,69,75,3
0.00020649888207808896,0.0006851581657145217,0.030126979214402893,0.1140589123685154,30,26,74,75,3
0.0001911825241077855,0.0006574776507482867,0.028631116182727553,0.0985512197032512,28,24,74,73,3
0.00019226603740235933,0.0006106751303563929,0.027302658875498168,0.0913994203478894,30,28,78,69,3
0.00016813794087371502,0.0006186473258218857,0.02567477343311249,0.09184520571105294,30,32,79,70,3
0.00017522977434464553,0.000625535377807182,0.025569844816124444,0.08818033822666888,30,28,76,68,3
0.0001896377755865353,0.0006384330526793907,0.027062217199166554,0.0944736696442072,32,28,77,71,3
0.00018268171998067983,0.0006366992220187808,0.026476119221038704,0.09251985000973637,34,38,76,70,3
0.00018836381384504855,0.0006393676205821416,0.02774647437032671,0.09673517420611011,42,36,78,73,3
0.0001839817249554902,0.000610111811767276,0.027241063805278704,0.0979358446653699,44,42,79,72,3
0.00016340934620960083,0.0006125250819276981,0.02709107893832118,0.09870755861467304,42,34,86,72,3
0.0001602313375892515,0.0005853055193660227,0.026452332854761725,0.0970080717684491,40,34,86,75,3
0.00017062525255495233,0.000594149099377909,0.027245682452661183,0.09666085273540032,32,36,85,70,3
2.3093363109857544e-05,0.00012688385283817277,0.0036463513082075766,0.00807361324155005,29,20,101,60,4
2.417457566572665e-05,0.00011304935351805956,0.0032725074717374725,0.007874741385054243,34,21,92,62,4
2.581474731268233e-05,0.00010908943822502014,0.0034380884606373474,0.007766276792647239,25,20,98,64,4
2.7354002533832403e-05,0.00011629256767466898,0.003474331437769608,0.007839807730480137,22,20,93,70,4
2.8114091994438646e-05,0.0001119982588505397,0.0035197271220921934,0.007550571605084882,24,18,91,64,4
2.764444780430563e-05,0.00011731577995762101,0.0037291428771940496,0.007626873176834908,20,18,94,62,4
2.6454486420088955e-05,0.00011838295663031535,0.0037905587633731285,0.007684819633890341,26,22,94,52,4
2.7942906814457957e-05,0.0001126516313413523,0.003910750994062719,0.007471566450688163,24,23,90,56,4
2.5541511435783285e-05,0.0001104339915814494,0.003875251897164875,0.0075741986205184455,26,16,94,66,4
2.4118741982495358e-05,0.00011175016596504404,0.0038078174304536625,0.007642870367355178,24,20,97,64,4
0.0007891651157385798,0.0005276038230360913,0.046853659624708,0.02924193093573266,17,24,63,38,4
0.0010983541683425898,0.0005686130232313468,0.05777378977200069,0.031188192941880563,20,22,47,44,4
0.0014534025216817155,0.005281802448292607,0.08585214459276944,0.2950496957965207,25,24,66,70,4
0.0014538708123045365,0.0053458523508551695,0.08486117684426375,0.2883585977815469,26,16,47,74,4
0.000758974120051955,0.00494978426494072,0.04805090287798347,0.2662044308931345,21,18,50,66,4
2.815375956390468e-05,0.00015120893034722453,0.0030312713727514767,0.009397315119587885,20,14,97,58,4
2.4466077845744556e-05,0.00015624168136446596,0.002992852822005652,0.009669660616247862,23,20,88,56,4
2.5016942540458824e-05,0.00015459078748438884,0.003043178892680526,0.009604676511449774,22,26,86,66,4
2.6493826993783287e-05,0.00016069217249923968,0.003061529070023361,0.009707924748093476,30,22,88,52,4
2.634803310957424e-05,0.00016445414520914375,0.0030284600333727396,0.00940567691588896,26,22,91,63,4
2.8261928579021678e-05,0.00015257623577548572,0.002911959309878688,0.00944281476646194,28,24,83,54,4
2.4334297418324474e-05,0.00014541021770799812,0.0030039475480383893,0.009316928570093422,24,22,96,58,4
2.4695289369004456e-05,0.00014642333216053526,0.002868356662109657,0.009397357745089365,20,22,89,58,4
2.790729106081765e-05,0.00014845272553469185,0.0030278975192444425,0.009406253814640778,24,26,96,56,4
