f1ch1,f1ch2,f2ch1,f2ch2,f3ch1,f3ch2,f4ch1,f4ch2,Category
0.00020121488194350167,0.0006106496120495243,0.03350213725555054,0.08613635410905633,36,32,81,79,0
0.0002658351523713128,0.0007497670735044362,0.04209229524551433,0.10116720195049933,36,26,77,76,0
0.00034785162000470495,0.0009100002314877333,0.043741603054157106,0.12270078013174265,24,20,69,67,0
0.00032513900592530154,0.0009797577680132528,0.04062227810139022,0.1301519862186174,26,22,70,69,0
0.00032876268841107946,0.0010251194560239763,0.042762455244926084,0.14279239093721754,18,28,78,64,0
0.0002876731361210377,0.0009963760253945252,0.036142719464096563,0.13425513552289078,24,30,85,59,0
0.00021449946286675872,0.0008276330151487911,0.03430298396542009,0.11789447459612956,30,30,92,57,0
0.00023923718185674348,0.0008954838912449436,0.03643857660896014,0.1188386291042164,32,28,82,57,0
0.000247526066674009,0.0008484296326638382,0.039792276391069865,0.11174991449649677,30,32,81,62,0
0.00024924392946212696,0.0007504466409489941,0.039077879096221624,0.11082142885433002,34,32,80,64,0
0.00026672149460319416,0.0008414468885371442,0.041293155397254026,0.11409089735636349,30,36,76,63,0
0.0002537543559799854,0.0007796447839623638,0.04366793911479242,0.10926962102859282,28,30,76,62,0
0.00023271678710897164,0.0007243153215424321,0.03741718731446156,0.10514703328778689,30,26,78,60,0
0.00022893760533313222,0.0007700218609519331,0.03913834074840094,0.1096820141029632,32,28,73,64,0
0.00022928421996088182,0.000697663957901349,0.03653711390943723,0.10072242494602486,32,26,69,69,0
0.00021108136780665266,0.0007700888957210311,0.031938002304726716,0.10833170787835528,32,26,74,69,0
0.00022458186128363465,0.0007072790545110202,0.033590090063133286,0.10463155214703516,34,28,76,71,0
0.00020088068520989603,0.0006630346312854935,0.030900202947572987,0.09462760359043527,30,36,71,69,0
0.00022135371580683336,0.0007239944137868461,0.035243357838896185,0.10622637871099107,30,40,75,63,0
0.00022941084314829344,0.000695507067787786,0.034321277164783504,0.10006612452239279,26,38,78,66,0
0.00024136692967737923,0.0008255669398206731,0.03525101216298369,0.12109824506363019,16,32,77,63,0
0.00028165609617142556,0.0008735596541034196,0.03872359698134763,0.11884772594932291,24,34,80,59,0
0.0003433834128052841,0.000868927992211997,0.04941307273715293,0.12270280515098647,24,32,81,61,0
0.0003469704882903609,0.0008967582336444368,0.05604825298811983,0.12773713303279666,30,30,84,60,0
0.0003802758457564866,0.0009107212434666846,0.05775152906188299,0.12322298755488813,34,30,85,62,0
0.000358847229436819,0.0009831791401682724,0.05837394047756149,0.12404208850684686,24,28,87,65,0
0.0003208937260693204,0.0010322682240562673,0.04617083309593626,0.12537500284457387,24,26,79,61,0
0.0003162920956300356,0.0011826456342255733,0.04484846154122775,0.13715615125920133,24,24,71,58,0
0.0003584899453161228,0.0010134237881374974,0.043377534887007886,0.11965588984115377,30,22,71,57,0
0.0003077498597925839,0.0009671001017338672,0.039490670235603015,0.11753216726050876,28,18,70,57,0
0.000282247976436203,0.000850719418724066,0.03960089207291407,0.10558817197894152,32,26,72,61,0
0.00027138630292129095,0.0006664105141798518,0.036993970948122755,0.09056556402076478,32,28,72,63,0
0.00022174196804372856,0.0007734412905884627,0.03276807512589683,0.10742898240270438,30,28,65,62,0
0.00022064254443067153,0.0009048327510276147,0.03291971586327136,0.11760633423483821,30,22,68,58,0
0.00022910833142586354,0.0008978509889774005,0.03211944235033851,0.11453932154876187,28,24,68,59,0
0.00021520300385685827,0.0009629363254126293,0.02844313224997662,0.12655506123240393,20,24,70,61,0
0.00020344353981542645,0.0009180968850972666,0.02831892989539808,0.10997394882260583,20,22,72,64,0
0.00019443582861538466,0.0007452625073649733,0.02719285752064725,0.10126323315477608,22,22,71,66,0
0.0002307877315645989,0.0007657441816832923,0.02888780434184987,0.10083621618108472,22,18,71,68,0
0.0006195198573551415,0.0008251193997589056,0.048334302522367326,0.09928701203994462,12,22,70,68,0
0.0006492920124982159,0.0009171486927391416,0.05567283269649397,0.11888124583430032,14,20,70,66,0
0.0006840712191930155,0.0009980688516655525,0.061737177173323415,0.12179441559994889,12,22,65,69,0
0.00030479041015777557,0.0008462035883093389,0.0437056541346177,0.13162227164314433,26,32,66,70,0
0.0003290730099092757,0.0009029694857459701,0.052437049800895884,0.1398879692511831,30,32,66,70,0
0.0002989162144869378,0.0008296603370751682,0.04759460586469402,0.12958562058282583,28,36,74,70,0
0.0002718272694939919,0.001164011212875625,0.04393250486776111,0.16898602461228618,28,32,78,65,0
0.0002763669506189435,0.0012006128676633277,0.04757353396831954,0.17206883263139092,32,28,80,63,0
0.0003159291487568093,0.001268682514382302,0.045621108811489945,0.17952569274468438,24,36,85,62,0
0.0009366347073192758,0.002985995004055929,0.11414756669422862,0.38778207206302945,24,30,59,53,1
0.0006076501841922117,0.002578392136602381,0.08811115049562376,0.3612681057755001,42,26,69,58,1
0.0005852664138635153,0.0023230365172647966,0.08796539388497315,0.33111869603214616,40,30,70,63,1
0.0005180003356665712,0.002464594273822236,0.08062744955699361,0.3100811432058275,38,22,67,63,1
0.00046775249805262994,0.0024563588811784645,0.071249917743132,0.32353220187904264,32,30,68,65,1
0.0004397105931947066,0.0026003192707852603,0.07260694181624433,0.3634782554304653,36,32,67,60,1
0.000451107732179165,0.00273880334809403,0.06862515060126281,0.3831746135599033,32,34,71,59,1
0.00046061560302739814,0.0025154520656569947,0.06817215396663945,0.3627462836345049,34,36,68,56,1
0.0004498773193374684,0.002663935215216299,0.0655143483747358,0.3678128143284007,34,26,66,64,1
0.0003836427062874546,0.0026087800123187643,0.05680410532829938,0.3665888764037009,32,36,71,62,1
0.0003615723982399776,0.0024417761916976453,0.05299738759880357,0.3211074018663292,38,28,70,63,1
0.0003554765011725942,0.0026955715935844038,0.0557578748762284,0.3392043694887412,36,30,74,64,1
0.00038318412202806534,0.0025234631931154196,0.05543926440628398,0.3175348281566847,32,30,73,61,1
0.0004439634483693645,0.002140639883526967,0.0603863278412349,0.2812452031688098,28,26,66,59,1
0.0003947713342094385,0.0023253237128963915,0.057951537997128544,0.30940084010850655,36,26,68,58,1
0.0004188553707166954,0.002390360023121629,0.0597527972180244,0.3234481417397764,34,26,64,57,1
0.0004156895111862259,0.0021833984061036056,0.06122042640947407,0.28424307330312454,42,24,68,59,1
0.00038996982005918857,0.0022286241554048034,0.05826319750637332,0.2950953327030149,44,30,62,59,1
0.0004601398510247492,0.0019281687476217892,0.06601271535622784,0.25816682297753424,32,24,66,56,1
0.00041851560014687274,0.0016700743394086018,0.060301898079392034,0.2192212219957943,32,20,67,61,1
0.00044813343775122294,0.0019998369488511093,0.05974209272008838,0.23514282308354767,32,26,62,55,1
0.00040625929881792734,0.0019023963516662076,0.058631438475527535,0.22633942940788113,38,28,73,60,1
0.00043462552488421303,0.0024586686687535215,0.05695801210345592,0.29125380191425254,30,26,69,59,1
0.000470572556196675,0.0022424696295090716,0.06001094729144708,0.2893255177253777,32,28,73,60,1
0.00046232124057879665,0.0022113229226272527,0.06375963152091026,0.2960433968801953,30,28,63,59,1
0.00044013303961447635,0.0021603565472578497,0.06446231612085593,0.285607369445631,34,24,67,58,1
0.0004221672580530249,0.0018374911423028883,0.0577276900141771,0.23329532758481342,34,26,70,66,1
0.00037830407950736,0.0018393638835305518,0.05436155865723572,0.24431557435798404,40,26,75,61,1
0.0003650048586397202,0.0017968015609133468,0.050224099397058235,0.2410505465009187,38,28,72,60,1
0.0003376126623724526,0.0015707241484561128,0.046270198896886966,0.22874267062100315,28,22,75,63,1
0.0003177174887072013,0.0018574980316756694,0.047920370525271205,0.2722505083232635,28,26,77,60,1
0.000276973909037808,0.0017305502259895873,0.04305908236495909,0.2478768993752047,32,26,74,57,1
0.00025152146710926706,0.0016101696355447918,0.03971950881648675,0.21984283270592903,34,28,82,56,1
0.00026137982683905285,0.0016684596442232851,0.041325851274300385,0.2275341227814905,40,32,77,56,1
0.00025205052964595505,0.001546070800461119,0.04002895454152265,0.20237378642630519,36,38,74,63,1
0.00026263061167326187,0.0017405068372377756,0.04152490015694927,0.2471577421596483,42,34,78,66,1
0.0002558357694739918,0.0019296995979848693,0.04083535751414708,0.2683655064746766,36,36,71,64,1
0.0002451030725020479,0.0018065271008092414,0.03990211426646483,0.2574150297062339,40,30,73,66,1
0.000261494967263149,0.0018124787462819277,0.039472842923088176,0.2540685586980903,40,30,70,63,1
0.0003277748956443611,0.0016344285729485023,0.047195174494100996,0.23247707749616658,38,36,74,66,1
0.00038433329463344475,0.0022087382222352805,0.05981843498445974,0.2794315266354613,30,28,75,58,1
0.0004396960060432136,0.0026418775617791683,0.06673471120081295,0.3181137229164385,34,28,73,60,1
0.0004746515345854886,0.002986852477952987,0.07731862197691122,0.3505542101437669,36,22,68,62,1
0.0004944996025666211,0.002925796100240603,0.08003305963374992,0.37301062535938123,38,22,59,60,1
0.0004966987176213843,0.0028594050912654273,0.07681667349005082,0.3451614580477277,42,24,61,60,1
0.0004138544156886924,0.0023217188067232663,0.06662974692948158,0.34297280102646127,38,30,65,61,1
0.00042234983359389083,0.0020113067731571004,0.06639316677352465,0.3074090176940847,36,28,69,61,1
0.00040673638828171753,0.0020115655034497614,0.0657465067482879,0.2824053303511035,40,26,76,59,1
0.0013549795103251505,0.00031444767753503966,0.25484601340603974,0.05701734006953273,48,44,80,89,2
0.001545743574845811,0.00032053249307578235,0.27361419537594867,0.06424792594135645,46,42,83,93,2
0.0015181924680635138,0.000324752625394353,0.28617548779514057,0.06285517981270007,46,32,85,89,2
0.001382136031150768,0.0002992826020300903,0.2661080246966962,0.06175131619904305,44,46,83,94,2
0.0014401083662983758,0.0002830157763062493,0.27775208270212925,0.058806011192020606,42,50,88,101,2
0.0014730565326620852,0.0002816313395321505,0.29030534666017566,0.059987128572827175,46,46,89,100,2
0.0013133852942252041,0.0002619622945299926,0.25497145436676033,0.055565231206072256,42,44,87,107,2
0.0013408136895319486,0.0002733639670752024,0.2619927896893444,0.05605050242278206,52,42,90,107,2
0.0012101064953400729,0.0002618512274224744,0.23525029685944387,0.0532102250555214,50,42,91,101,2
0.0011460698064785528,0.00020850759081945562,0.2212638629165685,0.042186527760637256,40,42,88,99,2
0.0011741897532391707,0.00023490342361902393,0.2348536478010978,0.046551907635328585,40,44,84,95,2
0.0011513898185955451,0.0002362487582181047,0.21812001580895612,0.0460784951149184,34,44,80,99,2
0.0012028237463585897,0.00022244990936083473,0.22621002533928708,0.045924344716840586,38,44,82,96,2
0.0011995453652351527,0.00022670392448033265,0.2308613851974361,0.04670767588713578,46,46,87,95,2
0.001194421505729203,0.00020892516632603213,0.22240147031153495,0.04127386852576088,48,46,88,91,2
0.001130173420705563,0.00019987379431820403,0.22735018311562397,0.039162374144156055,50,54,98,82,2
0.0011198191510945444,0.00019346875107867508,0.20895600108116152,0.03500498771513655,36,48,96,90,2
0.0010522136197550222,0.00018901345546131276,0.20401114003415524,0.03767001830594961,44,54,92,92,2
0.0008936095270452796,0.00017725010851704143,0.19110229504921855,0.03682421469999535,38,58,90,95,2
0.0009618913588429241,0.00015785828058532503,0.18231093889394034,0.03444184599593275,34,46,88,96,2
0.0009801894852784331,0.0001825970693544412,0.1951782660865673,0.03827015027003396,34,46,86,91,2
0.0009538560496699636,0.00017390391136326222,0.1885179450453627,0.03675232782906941,38,50,89,93,2
0.0010610060685251532,0.00017808475161466903,0.19852978225654805,0.03631234012636951,40,40,85,93,2
0.0010065429331533161,0.00019838765664621717,0.20084379297366456,0.04053473035479284,42,38,84,94,2
0.0010331629075210947,0.00019252860235578463,0.19204398247742918,0.041181922628508894,46,38,79,93,2
0.0010615756269111104,0.00020212775377461526,0.20400768482623888,0.04260117888834113,40,38,82,96,2
0.0010174293405987838,0.00021339071130467604,0.19183063567523875,0.04349552317226151,34,34,86,94,2
0.000982492589252326,0.0002072686518171255,0.17945795701152642,0.04002479603163671,36,42,92,98,2
0.0009105468829140847,0.00018922769991710047,0.1794781733739614,0.0377178597850146,40,40,97,92,2
0.0008243420561789021,0.00021417813133915538,0.16067534127586922,0.03706776364469807,38,36,93,84,2
0.0007633238164220552,0.0002142980282911923,0.15776338887847546,0.036726715081835636,44,40,94,88,2
0.0008806128499085235,0.00021371438424266388,0.1710187426737314,0.03715587764100066,48,38,93,85,2
0.0008394782033227473,0.00021994015197137923,0.1739552176159852,0.03925430273420065,42,38,89,92,2
0.000891062719740671,0.00018506515968382895,0.1788425892892244,0.03831242645277512,44,48,88,99,2
0.0009998432895417884,0.00019815560776830055,0.2048888392008291,0.04070398033863671,50,52,93,99,2
0.0013321303674506215,0.00020431334604020787,0.2443895433152959,0.04197289655314103,40,50,94,96,2
0.0014745691044822672,0.0002540944005847861,0.2529454818344123,0.046446964713368566,34,46,90,95,2
0.0015575597890933402,0.00023549460205326292,0.271397420598109,0.04911450008738182,38,46,88,97,2
0.0015108210667060993,0.00025941628389800005,0.25579980388607093,0.05426518792091288,40,48,93,96,2
0.001070178623039868,0.0012173545360018058,0.1854339260630698,0.09040911851326465,38,4,81,79,2
0.0007422217662806215,0.0012529719719332206,0.1371186842171866,0.08208044967539932,32,6,78,73,2
0.0005163815767987308,0.001269119928610625,0.0875323980020738,0.07628727544265927,34,4,74,64,2
0.0003624411876727139,0.00027814404063610936,0.05221769722197978,0.025508007502492998,26,16,68,82,2
0.00040363409720063295,0.00024284703054365517,0.06265124613385342,0.026147284129843504,32,20,69,89,2
0.0005244861725596657,0.00016460671900826108,0.08672053034693378,0.02503720504537724,34,36,75,98,2
0.0008583113753736244,0.00015222311419220118,0.14881607617044226,0.030140189939107068,26,48,80,93,2
0.0009826984661036454,0.00018290093031454168,0.1754359449017636,0.035795090233055,30,38,89,92,2
0.0012996094627439664,0.0002129412647993138,0.22819838315997773,0.03969086085983887,36,36,83,89,2
5.67192378972677e-05,7.824219219311509e-05,0.005420888133615812,0.009649691735894835,36,26,68,78,3
6.212334289288204e-05,0.00013003116670716087,0.005942769445790857,0.01621141420063818,26,22,66,74,3
6.738836057276807e-05,0.0003880613576897294,0.006933206021156978,0.04942906363245332,30,14,68,71,3
8.479263346936547e-05,0.0008329435407950843,0.008651528608968631,0.11716103164402793,24,20,66,62,3
8.844028112443623e-05,0.0017481209537477812,0.010418085432716738,0.23915467136550617,24,22,64,61,3
0.00010184046169491512,0.0028187619293261372,0.012437408819002807,0.3915766821285899,30,30,66,52,3
0.0001283009459342367,0.0034949511757449182,0.01460433997471227,0.4895804090609593,28,32,72,51,3
0.00013438012631566948,0.0040580399552524625,0.0168743528169567,0.5497327119054765,32,30,72,53,3
0.00013703910714610968,0.003942211866676673,0.017728591474258794,0.560714401798801,34,28,74,53,3
0.00015345925919547736,0.0034229443229168315,0.02023493630199619,0.5040361362005674,38,28,77,64,3
0.00015758447746645936,0.0030764381181741167,0.023259372923985187,0.4637807704688977,38,34,75,62,3
0.00016109122315452636,0.0027025293786370947,0.023130542358728783,0.4180778883556048,34,38,78,77,3
0.00018003980979179067,0.0027702836693110845,0.02628948745209514,0.4481673029633167,40,40,75,79,3
0.00015884077212325237,0.00291643260718722,0.025161393848951864,0.4947602298317425,38,36,78,72,3
0.000149086963620077,0.0031325031417422694,0.023858081560762055,0.5355179476385442,36,32,78,80,3
0.00014166412753588206,0.0031444820809316426,0.02493651794003503,0.5375204006779488,40,34,74,78,3
0.0001400199282182324,0.003118849708677263,0.023684316281832197,0.49526692523590066,44,34,79,69,3
0.0001295536383306253,0.0030432688206713638,0.023477348105714536,0.4781207131968932,42,40,75,74,3
0.00014143389156689068,0.0027887093709735877,0.023974169968766036,0.4410541875880165,40,30,78,70,3
0.00014768663076037463,0.0027513787006809725,0.024164551169790605,0.44464053634612755,40,28,80,69,3
0.0001592766563313356,0.002578941329827505,0.025480418446995723,0.421179016728122,41,34,75,77,3
0.00016987309780538393,0.0023226636091718145,0.02728465515390872,0.3657364224117073,44,32,75,81,3
0.0001758612321140032,0.0022475981748254926,0.02830953628555309,0.36686940410807856,44,42,71,77,3
0.0001852064330833684,0.002189740008833395,0.02935240571102366,0.353357081552367,34,32,71,74,3
0.00017919443868659194,0.002347020427724322,0.029183758659940773,0.3723572137024457,38,32,71,67,3
0.00019008293470973463,0.0027445210186309247,0.029616298638998072,0.3916880060634487,36,28,70,68,3
0.00019476607092356362,0.0025088432427968345,0.028360168100449935,0.38994725214749293,32,32,69,71,3
0.0001890507310105294,0.002460053702196447,0.028194557934048046,0.40001764365276815,32,36,73,74,3
0.00018950374494072208,0.0022498055622925815,0.027875831877102186,0.3694656154284634,38,36,78,75,3
0.0001697738584929327,0.0021056122045548017,0.026938770604680185,0.32835963975530164,38,32,76,78,3
0.0001670788786387948,0.0020918497396458773,0.02742911629896021,0.34902340171001245,34,36,82,79,3
0.00015907985436824896,0.0020615583077435713,0.02438269697324116,0.33686406112949724,30,36,83,70,3
0.00015829740571502343,0.001988121655513998,0.02399248918859825,0.31275397319822074,33,36,81,72,3
0.00015844189578461372,0.0019959326084752907,0.023950125987494346,0.31821371709721014,34,36,84,73,3
0.0001681208200509666,0.0017546060499589338,0.023325851952174737,0.28608024450309555,38,36,84,69,3
0.00015452443081278078,0.0015460036252059643,0.024684008451140427,0.26032752086048755,36,32,81,79,3
0.000143317111018097,0.001418568905593869,0.023436671568605686,0.24043248072133616,43,28,83,78,3
0.00014133628719036927,0.001415861593114878,0.02219846009180322,0.22870091612709317,38,34,80,75,3
0.0001387253629915548,0.001463117422849236,0.02083230237949527,0.22722686370425602,40,32,80,73,3
0.00015995892201792775,0.0019290810546245042,0.019234911611617604,0.25768898140728463,26,26,72,67,3
0.00016402722597879914,0.0022279095509874333,0.019369706079246523,0.28635632469595734,24,24,71,63,3
0.0001761524742915581,0.0024103582022405867,0.017792285680720298,0.3002036151440756,16,32,72,57,3
0.00014230019800768728,0.002297759790231624,0.016868204536689708,0.3078286857737884,22,36,74,59,3
0.00017709253338200139,0.0023000059452797025,0.019432547346133203,0.34281198848580813,20,42,73,63,3
0.0001782281206659488,0.002036953730693745,0.018995511994908412,0.3263271847291548,24,38,74,65,3
0.00020396233486571106,0.0017550189928557363,0.02050976961027155,0.2945119171973729,18,34,72,73,3
0.0001750124054184881,0.0016620297837141613,0.019686886172764886,0.2780830764988264,22,34,69,70,3
0.00016114864339406254,0.0017098853644244808,0.020099148490193917,0.2414442754138931,26,24,66,67,3
4.371782508052272e-05,0.00034700255972398315,0.004129177686173253,0.03434825426946263,20,12,74,53,4
4.226375286051281e-05,0.00016591654321910384,0.0040848811376300665,0.016729445380123515,26,12,68,67,4
4.202621148684335e-05,0.00016817898890165918,0.004078885751080393,0.017643383931840416,24,14,77,67,4
4.2168310787206476e-05,0.0001751291919644171,0.00379377608348738,0.01798733476843129,24,14,76,62,4
4.0898660418396775e-05,8.943226448119394e-05,0.0037586007483313808,0.011140001533861936,32,28,78,72,4
4.2077174867664555e-05,0.00012166874686595984,0.0037735089246485345,0.014892710059501211,26,28,82,63,4
4.4606861113770946e-05,0.0001458273113160101,0.003662156448938311,0.016990304560939504,18,22,77,62,4
4.248977225285519e-05,0.00012837570717716385,0.003907201550668129,0.015126547135122766,22,18,70,64,4
4.172888305117106e-05,0.0001248124296208759,0.003921986200127279,0.014716229549645394,18,18,84,68,4
4.270162489098829e-05,0.00013032335353535548,0.004178092794650727,0.013962580924216896,24,18,74,54,4
4.298570426370667e-05,0.00010795700065989061,0.004413361266312536,0.011311928774679375,30,16,76,67,4
4.353026380551612e-05,0.00011639925393601744,0.004268352790146512,0.012349169826362204,32,16,78,68,4
4.3236622023014446e-05,0.00010452084353952456,0.0042330064012288,0.011784022720975942,32,18,74,68,4
4.270884941947517e-05,0.00010896034544765606,0.004151456686449385,0.009903524612210998,28,18,80,68,4
4.33382469001098e-05,7.287109915556478e-05,0.0040713922172116055,0.008914253499513036,32,18,80,80,4
4.279008369844104e-05,8.208615904589478e-05,0.004140198773160659,0.009677917245409288,28,14,70,79,4
4.2544330276802114e-05,9.255315503161742e-05,0.0043438111435489335,0.010530640073629432,26,18,74,72,4
4.321954188479562e-05,0.00010254499453236594,0.004387926182314645,0.011510162000236648,32,22,66,71,4
4.203686650728239e-05,0.00015581971478491718,0.004483461645473983,0.015509961891267496,32,18,68,67,4
4.235383246498585e-05,0.00014007391436877297,0.004559366343530542,0.014362316007176312,34,18,68,69,4
4.261460277389995e-05,0.00013069670942745474,0.004389303705466759,0.01337280299584093,26,10,70,78,4
4.1216293644478064e-05,0.00011524372265636469,0.004269016023687068,0.013176383705761279,28,22,74,69,4
4.320944550478665e-05,0.00010890148352456432,0.004206389196171541,0.012003273044725656,28,26,72,72,4
4.290125696605896e-05,0.00011755151300418178,0.004400188296862454,0.012567431596842307,30,24,72,70,4
4.265376317248934e-05,0.00011155511568611326,0.00437631420228185,0.01335227556798649,36,16,72,66,4
4.4524873682648956e-05,0.00011086766748748126,0.00447173048236587,0.012851040945352145,26,16,70,69,4
4.3925929983342136e-05,8.481943499902953e-05,0.004322595484750896,0.010578007082476968,28,20,73,72,4
0.00023851801393275912,0.00026104277684578243,0.013798658861087712,0.02169388379197635,4,8,58,57,4
0.0002746764519394247,0.0006361884726895036,0.015443859815645604,0.041188663841513595,6,8,38,38,4
0.0002775526074272655,0.000787171942478242,0.01569335768471662,0.050823818382529216,8,8,37,49,4
0.0001307553882689994,0.0007025156690016177,0.00797176431797188,0.05012390877536452,12,12,43,66,4
0.00011806473279968207,0.0006532406901851624,0.007298044460097053,0.048080423206418366,8,9,65,60,4
5.166902061531651e-05,0.00030074014632487623,0.004271468936335126,0.0317544971842032,22,16,78,63,4
4.8761879702032705e-05,0.00018384468889225258,0.004262367728002086,0.02191124217935317,35,18,83,64,4
5.188092734416809e-05,0.00015713921253255068,0.004351420663969088,0.019691297300336287,26,20,79,65,4
5.206345406601439e-05,0.0001580642858443034,0.0044796774884651915,0.019017159926105136,35,22,79,67,4
5.261767702347531e-05,0.00015820162760041956,0.004585520348092825,0.020353794009537504,32,28,78,64,4
5.323518122632127e-05,0.00015684414094049596,0.004622523669300786,0.020228344407921272,29,28,81,66,4
5.2258342937115215e-05,0.00014421545793536972,0.004421291444134645,0.018593426051335543,26,28,75,67,4
5.2136272651933607e-05,0.00012366875672819831,0.004325680991540862,0.01614688820249315,27,26,77,66,4
5.140370252271624e-05,0.00011416580780562982,0.004254135738597085,0.015443084660476683,32,26,83,63,4
5.445530145863631e-05,0.00010923791859233798,0.004435730064352428,0.014521283735312255,39,26,83,66,4
5.461163972179353e-05,8.730045219774016e-05,0.004731995976711625,0.012793077102176038,30,32,77,76,4
5.366059019916514e-05,9.269805489992998e-05,0.004728023258916776,0.013039983127497653,39,32,73,81,4
5.353065437185887e-05,9.08656518134893e-05,0.0048449709251490855,0.012715594183490444,28,34,77,78,4
5.4449112514239116e-05,9.488451473697153e-05,0.004602503635917118,0.012822436514475531,33,36,79,83,4
5.359436036977918e-05,0.00010974297712773907,0.004491900980527149,0.014498973942223698,30,22,77,75,4
5.0834583712877114e-05,9.997294220686926e-05,0.004411332529849369,0.013608164462192415,30,26,69,75,4
0.0002492444790196252,0.0009805617733903583,0.03742203824435894,0.1295583487071916,32,32,76,61,0
0.0003020947355244877,0.0008837702730537759,0.04652223623516501,0.1253948304499305,24,34,72,62,0
0.0003514930545926945,0.0009201896365893107,0.05378943604406292,0.13315591604993923,28,34,71,58,0
0.0003125895024739581,0.0008950322502581222,0.048595076838536914,0.1311742450880791,28,28,68,59,0
0.00037095484670548253,0.0008100897142284272,0.054765933237743696,0.12158967808625036,24,30,66,61,0
0.0003397915616422426,0.0008766091042669434,0.0482378459291677,0.12422784170884729,26,24,62,60,0
0.0003020425462314147,0.0008291964347017947,0.04224363199852483,0.11674013933429388,30,28,64,65,0
0.0002978148625150522,0.0009291606996360563,0.03996513230264766,0.12512293698709115,24,26,69,65,0
0.0002838944958133162,0.0009821726304420086,0.042291955581516674,0.13444596124374505,28,26,72,58,0
0.0003007393383122751,0.0009904583563244153,0.039378566391847884,0.1223927555405546,24,22,73,62,0
0.00027539029680895706,0.000907676614016784,0.0353693852944296,0.10873960203413752,22,20,72,63,0
0.0002566400112473088,0.0007255816651620152,0.030244622380168885,0.08092972063364956,20,16,70,64,0
0.00012785084983985015,0.0003793825978580217,0.014896512139168941,0.052313085583442075,26,26,68,62,0
0.00011992133110712585,0.0003658517317356088,0.013700784111329344,0.05130297513170267,30,32,72,68,0
0.00014092151130434222,0.0004316726011040938,0.017168103613577266,0.05915393777042613,20,32,64,69,0
0.00017202276080944913,0.0005096910151422824,0.020713563462698203,0.07303122309619092,24,30,64,66,0
0.00017901473226461997,0.0006207049669101846,0.02412588600984781,0.08953190780559064,22,28,70,72,0
0.00021498766575099573,0.0007039043587955535,0.029719433203516357,0.10595868461424338,22,32,70,66,0
0.000164994859446653,0.0008116417267374131,0.02631317488706963,0.10892778462010536,32,32,77,65,0
0.00017517792066316468,0.0007612438556302018,0.029224836756293743,0.10358708079816514,32,30,74,66,0
0.00019567967720317478,0.0006919074881130103,0.03078159489711252,0.09515498473989502,26,30,74,72,0
0.0002180936939688011,0.0007043781277199149,0.030562075216976948,0.09411158097373074,26,32,81,66,0
0.0002491058874053921,0.0006923303400887511,0.03711701340881139,0.10059804322919665,28,32,81,71,0
0.00026692070510480947,0.0007584355550870292,0.03944620134083039,0.10628108842490638,26,34,75,69,0
0.00025966558251877417,0.0007611222457142976,0.040067598797560486,0.10828200628837355,32,34,76,68,0
0.0002563907232876141,0.000731587116392224,0.038942110245392715,0.10043351109672949,30,30,72,76,0
0.00024342341858017198,0.0006504707114292447,0.0344662819865699,0.09449539003075015,24,32,72,73,0
0.000229972227235263,0.0005981888682843073,0.03239026811164307,0.09191336123335753,26,30,73,78,0
0.000251894780007088,0.0006106397142698534,0.03475997408151509,0.09344921710449153,28,32,71,75,0
0.0002826240335593537,0.0005898750750618739,0.04030979797968345,0.09579847976828669,26,32,69,77,0
0.00026089343793599053,0.0006328703369346139,0.04077413690471283,0.09607828383247746,36,26,72,69,0
0.00036732294999313337,0.0007404210090540747,0.05304155051664474,0.10566736382605546,34,30,73,71,0
0.0003481545288222921,0.0007331219762041128,0.0552599693972784,0.10165680595817983,36,28,70,65,0
0.0003998322319857452,0.0008391368964589501,0.05747551740371336,0.11075431747394213,34,30,73,63,0
0.0004045542346906505,0.000836329253747955,0.06331082948015103,0.11124936549678285,34,28,73,65,0
0.0003456957311594648,0.0008734198868579228,0.05472709644729546,0.11444244145564639,30,24,74,65,0
0.0003071349251544537,0.0008752537482934516,0.05223446704851043,0.11942624403785092,38,20,80,67,0
0.0002955712231781378,0.0007483974184282918,0.051063954675049,0.10793803873995346,32,24,79,70,0
0.00030768378027200353,0.0006933246556151234,0.04761190787086819,0.10760737158453995,28,30,79,70,0
0.0003217671229543205,0.0005580462799898892,0.04787632120081276,0.088103045690836,30,36,76,72,0
0.0003567283354687178,0.0005499362332805822,0.053281832695273264,0.08421310240184396,32,34,76,74,0
0.00036386701100683366,0.0006192278395057688,0.05363175020869489,0.08265552776769018,32,32,73,76,0
0.0003518471405472404,0.0005854612913292371,0.053979435255982526,0.08433358826965219,28,32,72,71,0
0.000370629269166173,0.00067158901851088,0.05605521429341899,0.09502893806766356,32,28,75,73,0
0.0004432565256095326,0.0006177474077718996,0.06813300410353411,0.08833975041560589,30,30,77,71,0
0.0004457026896028876,0.0006065713720251997,0.06708570141375055,0.09135594742119468,32,30,73,68,0
0.000484465661985088,0.0006493360758941581,0.07329541374712006,0.09263084851866274,24,30,76,75,0
0.0004975608848640195,0.0005979597115736303,0.0715322503774612,0.09356753495946435,28,36,67,73,0
0.00040148027221458563,0.000677847773680555,0.05379880375855112,0.1005972549710799,22,36,67,67,0
0.00046446577013668175,0.002825503506972748,0.06726082238185323,0.3306295709024132,32,22,60,55,1
0.00045296118031879303,0.0029266076246309775,0.06834488686060955,0.3381657354729598,34,24,66,60,1
0.00046168960430955595,0.0030199091848633268,0.07116026244676599,0.3476158518289316,34,26,66,60,1
0.00047490266295180264,0.00319340615049188,0.07037892271652287,0.3781567124393322,34,30,65,59,1
0.000564401570496632,0.003146579435808883,0.07823729633893628,0.4018131262914324,36,28,65,66,1
0.0005251974794353665,0.003688875766296687,0.07599139037394564,0.4667304195245575,36,26,68,57,1
0.0005391514184377492,0.0036677875348415517,0.0769650274136915,0.47410595717132525,32,26,68,53,1
0.000567612406948006,0.003492488367314056,0.07820565930729535,0.4484762205947418,28,30,66,55,1
0.000545869277825597,0.003488449456415765,0.07474912710265057,0.4194832660275274,26,28,63,52,1
0.0007832317675123757,0.0024681106017008297,0.07583646486418552,0.3060254348857085,18,28,52,53,1
0.0007399168419803692,0.0022393929905622266,0.06462142652530183,0.26504489593250524,14,24,51,56,1
0.0007156230409057013,0.0016518567352467731,0.06360147533034,0.20528858270946532,18,26,53,53,1
0.0003541736165934485,0.0014941851822558342,0.047887066477577435,0.1968382239884767,22,26,57,57,1
0.0004729380734504199,0.0019128783159177245,0.0613366329559441,0.24745128152066512,30,28,62,54,1
0.0005094218033410625,0.0020273172868257496,0.06800395605618866,0.27542045276335336,28,28,66,57,1
0.00046052682770497574,0.0022317706686481313,0.06252709478516082,0.2657639944035322,32,28,63,57,1
0.0004466658906861026,0.0019533881545010148,0.05764139774212388,0.2741062695258531,32,24,67,56,1
0.00037383115372483704,0.0020818851523397163,0.05289437261814222,0.27764054799250015,38,18,70,57,1
0.0003699095787018071,0.0017262278640906286,0.05006436037421348,0.24409505507452448,28,24,72,59,1
0.0002990597328679402,0.0021449848928975735,0.0413590596157766,0.2710950692431857,26,28,74,59,1
0.0002667530561919729,0.0017204965853767457,0.03757952229199647,0.24662883832044463,28,30,73,61,1
0.00025960242273630077,0.0016418674913710426,0.03537952475007718,0.2183911837744482,32,30,69,62,1
0.0002664118959843723,0.0017347876233321999,0.036465262730893164,0.23273407311925653,44,32,70,64,1
0.0002631394663737353,0.0016720972030714327,0.04088539888564491,0.2156951105206802,36,32,69,59,1
0.00031557107234017346,0.0017927531879542156,0.048964217392266335,0.24211275197438895,38,28,72,59,1
0.00035281407000819885,0.002037162251572836,0.053729986762940864,0.27573944658656724,38,30,72,60,1
0.0003822611681617405,0.0019462749150150806,0.05798696142922648,0.26463104865806747,40,26,68,55,1
0.00041223719392589496,0.002256672142126341,0.05839997591281074,0.3004320186338233,38,28,62,59,1
0.00040713217486171543,0.002334473750214742,0.05682178531592006,0.32776247199513986,36,30,66,68,1
0.00043726977341173386,0.0023610521743070117,0.059595301599666216,0.32605376732658087,30,32,64,68,1
0.000493215141260859,0.0026144373880997544,0.06208653874144769,0.347095295059815,24,30,61,58,1
0.00044517712254077467,0.0026061685982928656,0.05685435716066748,0.3555037185258784,24,28,66,59,1
0.00044545605734789466,0.002431301308649828,0.05862805712419116,0.3154087051436566,20,22,68,63,1
0.00042372825862896856,0.002274328792570213,0.053526096770908915,0.2971825799535268,20,24,70,66,1
0.0003688641939938876,0.002332132873628868,0.04628862719399616,0.3244907549455673,20,30,75,66,1
0.00040897496138460093,0.0022539680560115997,0.05130574534717426,0.3066810976094006,26,32,70,68,1
0.00036412174909976146,0.0024484645882622527,0.04780362006632747,0.33255143107387847,30,32,69,64,1
0.00035533277458549636,0.0023492056068370164,0.048912497371380224,0.32890542364264186,32,34,83,70,1
0.0003750184768762072,0.0020131702556511082,0.0552005437481504,0.2785937502851832,32,34,74,68,1
0.00032743843072909604,0.002321394245301312,0.05221897980225597,0.29047427268523407,38,28,77,70,1
0.00031587345901012173,0.0022238208768309143,0.050257117207643615,0.26373463852010637,30,26,75,70,1
0.0003311012498520008,0.002523889316460409,0.052498405049276456,0.2891289604912639,30,24,73,59,1
0.00038651986342927116,0.0026343631695326113,0.052649178623985944,0.2880455529280584,32,24,75,59,1
0.0004079458408494956,0.002790411908522143,0.05838373136662824,0.31171354937781803,34,20,76,63,1
0.00047165194756135334,0.0029188121870234655,0.0605364450660542,0.33367141497359465,28,18,76,52,1
0.00045742123251856013,0.0027708837827141565,0.06316566977413972,0.3153812704995956,28,18,74,55,1
0.00036869648938881637,0.002915742566300379,0.058668037801146385,0.3615054396349437,36,22,68,54,1
0.0003929571896970466,0.0025139341178008283,0.06350350490621831,0.32565394151293986,36,32,69,57,1
0.00046192603316866116,0.0024635478294711853,0.0687838384882702,0.3379099485121091,36,30,61,61,1
0.0007198789648274303,8.898437580206103e-05,0.13910136788064495,0.019603741765518788,38,54,86,96,2
0.000779681410366296,9.165029394158031e-05,0.14744554078750088,0.019887736127481608,36,50,84,97,2
0.000815071706180684,9.085152114794682e-05,0.16622406988548022,0.021275187219475307,38,52,92,97,2
0.000949243321633405,0.00010085420392340146,0.185351276027953,0.023407346377226957,40,44,93,98,2
0.0009244609226983823,0.00010127095156959832,0.18371842321520698,0.024417858341276175,36,48,88,99,2
0.000899897159826318,0.0001026236250484556,0.18888533606236638,0.023612305762678774,38,48,87,96,2
0.00092213172756477,9.935707548539385e-05,0.16911164738818618,0.022751504315966762,38,50,84,97,2
0.0008147580381230076,9.682122810369443e-05,0.15991853261930117,0.021867232935418018,34,52,84,98,2
0.0007812548008787963,9.45439995592979e-05,0.15727096188212272,0.021208395487682795,34,44,89,104,2
0.0009161119183459911,0.00017111452903216464,0.1719908985107143,0.03005796223757218,36,32,92,107,2
0.0012106685228962986,0.00020782817399866036,0.21009005710489723,0.03648309162914973,34,40,85,109,2
0.0013153513077335216,0.0002477000529811703,0.24198264936806752,0.04485143361777012,40,36,87,103,2
0.0015021161962862817,0.00024375171787188285,0.26693153564904537,0.04772330810090016,40,44,79,103,2
0.0015255784593860627,0.00020837155408540964,0.27891992795296355,0.0432857027851872,30,46,78,100,2
0.0014204981741976542,0.0001902463667125468,0.2691993250929985,0.03989832497883579,32,50,80,98,2
0.0013227573247436147,0.00016352382776332089,0.24092948876229678,0.035804037460861464,30,54,80,99,2
0.001323028067316345,0.00015049064129992834,0.2366157813633952,0.03418220247367109,30,52,83,94,2
0.0011035953184553113,0.0001437862276860852,0.19571240969646017,0.03198118299698812,28,48,89,97,2
0.0010808301409480688,0.00014917613539625855,0.1911084563000863,0.032032059831274,28,54,85,96,2
0.0011893849433745056,0.00014996919008761922,0.202555087320976,0.03064767254146429,30,48,78,94,2
0.0010808223673486373,0.00015451670481446197,0.18956893502871394,0.03296481502757906,34,52,79,94,2
0.0011972403124951986,0.00015802869224627286,0.20618272498152396,0.03280422266142632,38,54,76,88,2
0.0011644272303207195,0.00015479742789920438,0.21062042403316716,0.03386662429447059,46,50,79,93,2
0.0010473192706563108,0.0001658133323969145,0.20013807148214433,0.03501001850458754,40,48,86,94,2
0.001058609501472982,0.00015205767671183914,0.20074818616867457,0.03169760047038505,38,42,82,95,2
0.000963239350508433,0.00016571918326618705,0.1794527049950638,0.0330879343117897,38,40,89,96,2
0.000860822881286478,0.00015900671316748161,0.1698005208751584,0.030705493041648498,40,44,88,92,2
0.0007573746670166955,0.0001437703422720205,0.1485912283995767,0.027993538113855212,42,44,92,92,2
0.0007667629570540875,0.00014178123026751169,0.15213428248725838,0.029332921913678773,38,40,92,96,2
0.0007374639139882894,0.0001337631190285463,0.14894904478462395,0.0269507387214687,40,44,95,98,2
0.0006881467818806739,0.00013339293729129758,0.13625340420375587,0.027030032314558847,46,42,93,98,2
0.0007927841536970053,0.0001195490093840743,0.1417207362673434,0.02473654535583897,30,48,80,103,2
0.0007456943467054147,0.00011146472862650585,0.12141183339011578,0.02371704780401502,34,52,79,104,2
0.0007870942266900577,0.00012279558240682034,0.12532719822788216,0.02505329654088863,32,42,73,103,2
0.0008299798219316766,0.00011338321864294385,0.1345214173761678,0.024275546948466963,32,48,72,107,2
0.0008432316245927985,0.000132404544417279,0.13907608318727963,0.02714982446249145,36,38,79,98,2
0.0009462332725928595,0.0001385084299045016,0.1618475462675643,0.02855651039604518,46,40,80,94,2
0.0010733442363011108,0.00013004675029081996,0.17855457234236435,0.028014084325961322,32,36,82,93,2
0.0009811817601483538,0.00013848128909333887,0.17608910613053538,0.029424591634233426,36,42,85,98,2
0.0009809748317634475,0.00012114390092553346,0.17732501943109824,0.027688911069102193,38,44,87,101,2
0.0009218250723651169,0.00012868045489468135,0.16419082798082357,0.0282820274534227,34,52,94,104,2
0.0008664640205412044,0.0001321033436203859,0.1444271155044449,0.025692954416214938,30,44,85,101,2
0.0008362328341187246,0.00013404150812000487,0.1426223090276621,0.024966392297714135,32,50,84,100,2
0.0007984717774356377,0.00013168488956594244,0.14054658745088483,0.026988640135559502,32,52,84,102,2
0.0007712242540585587,0.00014679406304588481,0.12932020197921745,0.028193300986934833,26,50,81,102,2
0.0007839177011955443,0.00016737819949724678,0.1273959756705575,0.030955759783115454,30,48,92,100,2
0.00075287252388041,0.0001622388184126225,0.12887577039661477,0.0312891361766974,34,44,86,98,2
0.0007055036464356186,0.0001670168635196132,0.12786897525316668,0.03245789989768072,34,42,86,97,2
0.0007920130237225598,0.00014248339025042296,0.13937232499592384,0.029805186078480164,32,50,84,98,2
0.00015488405736081682,0.0019011662693838927,0.022193798417717858,0.3057743135015951,30,30,68,72,3
0.00016313774361653794,0.0019489059852710908,0.021635339075247447,0.29336272450118817,26,30,68,73,3
0.00016140781308941448,0.001697139351268567,0.021822692530528234,0.2692270400945764,28,30,71,71,3
0.00016387857570929323,0.001568117173183822,0.02148441971508605,0.25805536943459384,28,32,75,71,3
0.00015827343737139201,0.0016709015550052905,0.020629137377255885,0.2706066136366735,34,34,86,71,3
0.00015746881621130651,0.0018418746058295893,0.021564330903286407,0.2944922893375644,28,34,83,72,3
0.00014753501604167674,0.0018515121837405723,0.02066783888231085,0.3264674710750121,24,34,85,74,3
0.00015042137021807934,0.0018153215858753469,0.021752254798802093,0.3220888217419036,32,34,83,76,3
0.00015260448973467532,0.0017702243147117859,0.022120485314228396,0.3043294330550497,32,36,81,75,3
0.0004861578257412554,0.0035904239761054674,0.034943418499005306,0.33223965630367114,8,12,66,70,3
0.0005076129470963818,0.0033475070145171054,0.03315928116906331,0.2606167352608643,4,8,58,70,3
0.0004966669411904852,0.003097150652825118,0.029044036085347762,0.22249067673634715,4,6,50,63,3
0.0001085903713997785,0.000782404892530268,0.010448228115231791,0.10870304029134731,26,36,65,73,3
0.00011935697155859208,0.000928142975369006,0.013078458341165661,0.1358196308792734,29,40,64,73,3
0.00012675975324928946,0.0011011159337931714,0.014452486922997484,0.16929691948684183,30,34,64,75,3
0.0001287995243296771,0.0011864240876525412,0.016360088017290463,0.19192636360059645,35,32,64,72,3
0.00012572026902416954,0.0012640408708868259,0.016837224578591912,0.20587467525784342,40,34,72,73,3
0.00014555479594276157,0.0014154073243632216,0.018535101363950163,0.23384429088002898,34,42,74,75,3
0.00014686180333539444,0.0013633375548701503,0.020305854304898566,0.23449587471829383,28,40,76,76,3
0.0001502104492371132,0.0014899840607395438,0.0226093138141339,0.2627337840690058,31,44,77,76,3
0.0001744214059172451,0.0018475025141023347,0.02407433919484258,0.3152767382613827,30,40,70,75,3
0.00017978922584355162,0.0020001583679879354,0.025337631923570473,0.32604141874153253,26,38,79,75,3
0.0001704124383408814,0.0020531516248791237,0.025837151428369155,0.35355540146568604,30,36,74,78,3
0.00017141957954080154,0.002139885241613767,0.025957057691453605,0.3554662928629387,33,34,74,75,3
0.00015799764383325274,0.0019383609190844425,0.02692642665930863,0.32581274773021035,42,34,79,74,3
0.00019095085479383194,0.002127639857318489,0.028191196656416086,0.32610828533544567,27,32,82,68,3
0.0001785112569843684,0.002045153341573879,0.0291013142210893,0.3227209416543932,38,32,84,70,3
0.00017902626000126384,0.0019321127010621553,0.02821934967982931,0.3125506365100638,42,32,85,73,3
0.00017669946204203261,0.0019274282802569963,0.028835035633092882,0.3131856345427348,36,42,83,72,3
0.00016970626423711536,0.0017523504395918872,0.025807522630408607,0.2782336796121117,34,36,80,76,3
0.00015949818560058289,0.0019734564409162087,0.02524417740732323,0.30295615808812776,28,32,79,68,3
0.00018493936233479415,0.002084756870719138,0.028412830575057235,0.31159866154657706,32,34,76,70,3
0.0001762012203782402,0.001948587173150253,0.028040154389730444,0.29805827206047636,32,36,77,70,3
0.00017702590341810886,0.0019575794102347607,0.02699637265818674,0.3217825847046464,30,34,78,69,3
0.0001690472187058692,0.0017805221596443196,0.02596840427308291,0.30016366851508275,34,40,80,71,3
0.0001500099436549846,0.0017542963196473316,0.02266240281762606,0.2913107084173831,36,36,83,69,3
0.00013596696337723221,0.0017433522171419141,0.02073008976606919,0.300036318253168,32,34,87,70,3
0.0001507193990718581,0.0015997279718331257,0.01987613501763584,0.2775583139123919,37,34,81,75,3
0.00014931623075084755,0.0014251954828827975,0.019770985318235196,0.24801829151884913,42,36,77,76,3
0.0001560935763496743,0.0013445311838818782,0.02019322713344084,0.23438361760740192,40,38,72,70,3
0.0001489914528627514,0.001401216472656798,0.020234644438187278,0.2324206474928664,36,38,80,71,3
0.00014025646488543864,0.0014324557308538525,0.019683233506164535,0.22903340460844332,34,42,77,68,3
0.00012795954241375532,0.0013694936881316698,0.019065854985965507,0.22461036537838577,32,40,82,74,3
0.0001229948513803029,0.0014602620714633094,0.017663386198062597,0.22876993307662918,39,36,77,75,3
0.00012413295629807303,0.0013261699810395565,0.016664657913222046,0.2144420474462128,32,32,77,74,3
0.00012417719315792298,0.0014125482886109084,0.017276166353128997,0.2293395902807902,37,36,77,79,3
0.0001196792385808042,0.0015476900894129527,0.018484937752212088,0.24308625636636788,36,40,79,76,3
0.00014649463450995483,0.0013448261820262909,0.017973923377455688,0.2293575681908708,26,42,83,79,3
0.0001478785851674616,0.0013101121242150183,0.018315581937558233,0.22960556897107523,28,38,80,79,3
5.469610317561095e-05,0.0001628498707117339,0.004668250335651797,0.018848590308373186,24,22,79,63,4
5.428998814894559e-05,0.00019645407330961414,0.0047592002113365246,0.024095504891582818,30,32,77,58,4
5.3525212349399126e-05,0.00020314061799304312,0.004887295338026809,0.02506420962817249,28,36,85,61,4
5.8307637281922555e-05,0.00023742536281372577,0.0050190971655363695,0.02896315854737412,30,26,76,60,4
5.565259837407889e-05,0.0002762475335711282,0.004836618781551671,0.030800670711040885,28,24,74,57,4
5.49131158060079e-05,0.00025584114831066,0.004787932142122397,0.027413674343268076,20,22,75,62,4
5.7817535639531263e-05,0.00032101216580021955,0.004507489160977079,0.033038760660204884,18,22,67,60,4
5.367387999610048e-05,0.00027927307370351375,0.004214456016133498,0.026700921677999402,26,16,73,56,4
5.659164982267099e-05,0.00024543332973654306,0.004256264668403173,0.02688581499081696,24,20,80,64,4
5.255192153608015e-05,0.00022743835920982925,0.004329822818570585,0.025843262329912534,24,14,85,71,4
5.5131886873243435e-05,0.000150066756136016,0.004468433884533258,0.02138165106007234,28,20,85,75,4
5.250875672550502e-05,0.00019025302014938968,0.004755126802928282,0.025449021152464498,26,26,79,65,4
5.4518546934640354e-05,0.00017277052829750298,0.005068923209004509,0.022350028108380895,28,18,83,73,4
5.3043016474127286e-05,0.00019751260622828396,0.005041694255519656,0.02414251580570707,26,24,81,64,4
5.3088625466261206e-05,0.00017445584371056017,0.004971252818484775,0.01973193340455933,32,26,83,63,4
5.301121989451892e-05,0.00015128247026699907,0.004791783275509182,0.020627791080674293,32,28,77,69,4
5.5661556213061714e-05,0.0001676497758469855,0.00460501235338094,0.023544811692536215,22,26,70,71,4
5.389449515213177e-05,0.00016480161015008978,0.00447190622998685,0.02394510315568131,24,30,75,68,4
0.00011350304353869025,0.0007842785029439639,0.00834859962158242,0.06538539803657217,14,12,60,60,4
0.0006320914908433902,0.0013634779889392025,0.03720162227583705,0.09296936773756576,4,7,104,61,4
0.0006839669191088367,0.001366859141091764,0.03816949345714498,0.0926328776408047,4,8,88,64,4
0.0006522185685933546,0.001023899932238645,0.035309140990851307,0.07740254064037504,4,12,63,51,4
0.0006060788298736922,0.0008555713689025617,0.03346810796096762,0.0563078080035516,3,10,60,61,4
6.67772545657731e-05,0.0001937103846016244,0.005894236461849965,0.022744869064844086,28,20,62,57,4
6.617592462550756e-05,0.00016036592783219412,0.005910753822224084,0.017452112912379355,30,18,64,67,4
6.364904169600689e-05,0.00010991955568431847,0.005503470176169445,0.011089928409726668,22,24,64,74,4
6.547933300642188e-05,8.311846901472212e-05,0.005692929803241708,0.010337067899720684,30,36,60,76,4
6.496248360524921e-05,7.66889664168832e-05,0.005685905958867835,0.010087505635320928,22,30,66,72,4
6.397240960248162e-05,7.822463381209885e-05,0.005673192212807052,0.010792892544257216,32,32,64,75,4
6.364002423719844e-05,6.322503875467637e-05,0.005800819013640106,0.009068050807181906,36,26,68,82,4
6.347258941116193e-05,6.514623337291213e-05,0.0057845728106040864,0.008615425443000781,30,22,72,78,4
6.425586622844084e-05,6.773517898764583e-05,0.005680968083160604,0.008979234312301472,28,24,76,78,4
6.425876219459709e-05,6.469469034070309e-05,0.005637471524693379,0.00896696352682647,32,26,72,76,4
6.385328259365579e-05,7.432397735867701e-05,0.005859726265663273,0.00969643994051795,36,28,74,77,4
6.426918593656477e-05,0.00010085672219870742,0.005804741948748641,0.01161428482622468,34,24,66,78,4
6.477416548246101e-05,9.66661390553092e-05,0.005893431188659054,0.011302051494779095,26,20,70,70,4
6.413944311563704e-05,8.898309423413593e-05,0.005781787627900838,0.010356367228554604,28,20,68,71,4
6.509183539521639e-05,7.552401650800009e-05,0.005749889674492404,0.009221747149864921,32,10,68,72,4
6.383334176833665e-05,5.703578790371649e-05,0.0056581861051303774,0.0077302406776190305,30,18,70,81,4
6.285037468458152e-05,6.19040875703073e-05,0.0055966001810863,0.00851285917351807,28,24,66,72,4
6.185151111839593e-05,6.360282054512653e-05,0.005806548705758915,0.008367964624585672,30,28,68,72,4
6.202085663780781e-05,6.240985990228983e-05,0.005551202678312807,0.00836103967240023,28,30,66,76,4
6.342669360423523e-05,5.7349714316474165e-05,0.005466895550848677,0.0078112903899191875,30,34,63,74,4
6.374572632385401e-05,4.6972132520859246e-05,0.005607863768534554,0.0057197048140932814,34,34,66,75,4
6.745465569765304e-05,4.766806127062107e-05,0.005521020137257049,0.006332341023198772,26,32,66,77,4
6.69316336875919e-05,4.611725136034743e-05,0.005699090459078123,0.006124870820930835,34,36,70,79,4
6.579673833150784e-05,4.30582311657631e-05,0.005979597680424344,0.005882296750328165,32,32,76,77,4
6.477459828629387e-05,4.03440432295573e-05,0.005968851968734996,0.005776815812500593,34,30,78,83,4
6.703859829075768e-05,3.797014775188627e-05,0.005945150089817632,0.005403383736858204,28,30,74,84,4
0.00033918246434806227,0.0012978376544275964,0.05016389551847882,0.18631236817610033,36,32,73,59,0
0.00035551404024141775,0.0010871518153915362,0.05329479895424085,0.1613215320050662,36,26,78,61,0
0.0004061951824232965,0.0010932445528696062,0.05849056177281594,0.16328133952133522,24,20,77,64,0
0.0003820261944851847,0.0010864584584701728,0.057359971303799,0.1640962218212263,26,22,75,62,0
0.0003910623309969715,0.000956762855007367,0.055558957820290536,0.1466670502375877,18,28,77,67,0
0.00037912304488610355,0.0010461932019083422,0.05431876791017105,0.13535425376235402,24,30,74,62,0
0.00038321889158212074,0.0009568430993245604,0.056987142265218824,0.1286826974403871,30,30,76,68,0
0.0003488239037268372,0.0010046975749570832,0.05120809485346952,0.13220310387562184,32,28,75,68,0
0.0003336710299582246,0.0010909153303883716,0.04971722356921707,0.1517096246298575,30,32,72,68,0
0.0003280662881588788,0.0010419143563318303,0.04825549754908949,0.15404584286264117,34,32,75,66,0
0.0002573037225569468,0.0010021247027512331,0.039256245343336514,0.14323701979309764,30,36,80,63,0
0.00027546145184416415,0.0008491937425017257,0.044773748231843984,0.12296273229469626,28,30,77,68,0
0.00031457559298003914,0.0007793006626390359,0.055500203232498685,0.10992892080081235,30,26,77,69,0
0.0003996449894933735,0.0008756820969987154,0.06674528048200425,0.12308764899846686,32,28,73,63,0
0.00045422570026630777,0.00092630700245949,0.07146274692818898,0.14061305613857444,32,26,74,64,0
0.0004585443488324985,0.00095453789335998,0.0741626998974506,0.15260927434366545,32,26,75,66,0
0.0004541596785518285,0.001047606402073535,0.06658202014008135,0.15527257420101545,34,28,72,61,0
0.00037225808246378167,0.00113051075733091,0.05460444695071864,0.16557023138410518,30,36,75,62,0
0.0004008582085978538,0.0010344819110995084,0.06265929882987877,0.1500097107839886,30,40,71,62,0
0.0003716734219288453,0.0009893367889006715,0.057184667858396016,0.1364529884501928,26,38,70,65,0
0.0003569783666691597,0.0009566110305978811,0.054501821243968275,0.13319378391178038,16,32,72,63,0
0.00034547718591227344,0.0008685676476416934,0.05187389910790218,0.11460702137887123,24,34,66,73,0
0.0002721755371960633,0.0008757490539138268,0.037394572657362644,0.11370729422102371,24,32,69,72,0
0.00028085174690841303,0.0009771870919966436,0.04013679126062223,0.1222039623864838,30,30,72,66,0
0.00039223109001997595,0.002358188020882233,0.06260575494889842,0.29743558990171415,24,30,73,57,1
0.00042495395199924386,0.00239838345627235,0.07021685813071445,0.32504382059384374,42,26,71,61,1
0.00039976497772345937,0.00258709896244866,0.06461029459989695,0.3186807932667507,40,30,73,62,1
0.00039057566808999516,0.0027355971453133453,0.06166356206736856,0.3458634252552895,38,22,72,65,1
0.0003915065958937873,0.0027010999845663713,0.0601552712882959,0.3653988119520614,32,30,66,69,1
0.0003957517826973609,0.0028356566429600556,0.05947805574587994,0.3646294871297159,36,32,69,68,1
0.00039627265713529624,0.00299936447986137,0.06362255978924594,0.39014550763188155,32,34,72,65,1
0.0004440362846247043,0.0030614635998426564,0.06289424089984222,0.40922136205175036,34,36,63,63,1
0.000556178421534454,0.0031264173459287004,0.0808050297223949,0.3746510702275573,34,26,67,59,1
0.0006030297354542362,0.002654764310519428,0.08370044158028846,0.3246864355594232,32,36,64,60,1
0.0005879840902298018,0.002752609213153408,0.08262451214149198,0.34546316747945083,38,28,71,59,1
0.0005906066273367508,0.002860877482383724,0.08680978051213206,0.312003333956959,36,30,74,59,1
0.0005759485450796694,0.003107876215735898,0.0818961149736591,0.335744294380757,32,30,71,54,1
0.0006645732806527071,0.0032811726109797873,0.08650968034682328,0.3736302906068234,28,26,71,49,1
0.0006129925192814086,0.0030697354730344346,0.08551075990554229,0.3283378711424366,36,26,69,48,1
0.0006004114764536825,0.0027974231923365376,0.08278009713829776,0.32490142524727283,34,26,70,54,1
0.0005210472199820552,0.0025640992684835716,0.0762286433315442,0.3297283296228734,42,24,73,56,1
0.000514077240707183,0.0024718745190413158,0.0676582238670627,0.3099986016556899,44,30,77,59,1
0.0005022188887042076,0.002172320756281974,0.06832236714513049,0.29361169695800865,32,24,70,63,1
0.00046676477331472556,0.0025311330169156716,0.06941899204786614,0.33370392665883464,32,20,71,66,1
0.0004919120804295191,0.0025119635714909066,0.07332947940425812,0.32017820409813363,32,26,69,62,1
0.0004530289882461984,0.0026136162202740347,0.07226849592272568,0.3154292914981451,38,28,68,61,1
0.0004544404580126396,0.0029703638342702867,0.07048797863856682,0.3533959146460395,30,26,67,59,1
0.0004983755334970067,0.0028728072039181348,0.07480896760991909,0.338681773230907,32,28,61,54,1
0.0013114656818926079,0.0002146866545570926,0.23484913938534724,0.04287681251875105,48,44,85,93,2
0.001188924497726401,0.00019573912199046062,0.20934693640255383,0.04208071005977712,46,42,86,103,2
0.0012934619840384615,0.00016887592106478542,0.21248449935207642,0.03746124110024588,46,32,90,102,2
0.0011370082729948326,0.00015730373641409983,0.18825219572269042,0.035384238318066974,44,46,84,100,2
0.0010830057481644726,0.0001598272917116478,0.2063703552069569,0.03471126515714012,42,50,86,99,2
0.00111514719991187,0.0001706756680693821,0.20968650598101468,0.03672359437456495,46,46,84,91,2
0.001070980890770104,0.0001737765611817183,0.20511930142741203,0.03952972580143859,42,44,87,94,2
0.0010997196394340143,0.0001693455565283478,0.21648565554229132,0.039877202071905905,52,42,91,99,2
0.001096352118999373,0.00016983264320309915,0.21465527735430062,0.039685447547869235,50,42,93,101,2
0.0010518398650613335,0.00015475951356316083,0.21026581863841723,0.03602022675155456,40,42,93,105,2
0.0011588277769801363,0.00014840851337674126,0.21991816119686577,0.03318338107797223,40,44,92,104,2
0.0010121714013643615,0.00013610595586500314,0.19375645971112945,0.02955827963212287,34,44,95,100,2
0.000967761377776146,0.00012850191394247627,0.18450876114755033,0.027666310761514375,38,44,90,97,2
0.0008848642506368382,0.0001309740081021683,0.17267440742753973,0.02827618115526289,46,46,96,94,2
0.0008047638549211245,0.00013515920695453612,0.16464114516971415,0.02939302084509482,48,46,101,86,2
0.0008310545548194198,0.00013575051561824406,0.17532354396004557,0.030098573715072182,50,54,93,91,2
0.0008983159319649404,0.00012476578567491523,0.18319736269217732,0.027261865190504917,36,48,92,96,2
0.0009413648417100194,0.00012144919383601875,0.17375619584605487,0.025915386419659736,44,54,88,101,2
0.0008985454752998185,0.00010385583993932355,0.17042396911972874,0.02359631229587565,38,58,81,101,2
0.0009537359465131296,0.00011126373187848323,0.1712739892765656,0.023620924357820428,34,46,83,96,2
0.0008972563946180115,0.000124937909559002,0.15581932245679703,0.024902819696254297,34,46,84,90,2
0.0009472924852494178,0.00012069752757172962,0.16072018392512621,0.024364314756382063,38,50,90,91,2
0.0008267387251843113,0.00011676979059710901,0.14791326892861775,0.02371084455623248,40,40,89,90,2
0.0007286270900844553,9.987278731577892e-05,0.13430146611136445,0.021036164279217492,42,38,86,95,2
0.00016290828348914852,0.002013848600842713,0.020690185909042043,0.2934753363502098,36,26,66,69,3
0.00016600863953930355,0.0022069090425537257,0.020401623806624334,0.3344364293051336,26,22,66,65,3
0.0001630706178572109,0.0022347917800081855,0.02064223055873504,0.3588093338917397,30,14,72,66,3
0.00015805274633368105,0.0027553051638907677,0.019950703136644113,0.419886795442155,24,20,75,65,3
0.00015097034955274545,0.0028946050761967314,0.020128499635193392,0.459221699755723,24,22,75,68,3
0.00014311357295345687,0.0031098174753556697,0.02068707254638765,0.48592959143745706,30,30,81,68,3
0.0001591946776285887,0.003285805860669656,0.023696841715459816,0.5260063750527644,28,32,75,68,3
0.00016387255231425343,0.0031343715238049373,0.026157855002059353,0.5465896354966697,32,30,80,69,3
0.00017257468785210583,0.00328957959976813,0.02793622661773327,0.5387566387350846,34,28,76,72,3
0.00018952047176733536,0.0032892559199107023,0.030959249124372378,0.5502066379329289,38,28,75,66,3
0.00017269720555574002,0.002787885340335895,0.029380348749610187,0.508489568609811,38,34,80,72,3
0.0001724356716944645,0.00260829218424008,0.028240440424685053,0.4470788614845419,34,38,87,68,3
0.0001810714467768581,0.002226189332001155,0.02810209145216668,0.40607707553879385,40,40,85,75,3
0.00017517407164803164,0.0024017139107631504,0.026733116377033128,0.4123980622090292,38,36,82,72,3
0.00018911445760071418,0.0025065323162717706,0.02893519898682571,0.406798736548764,36,32,82,66,3
0.00018508156379594436,0.002940125297427935,0.028542642940896784,0.441796465705799,40,34,75,66,3
0.00019085651349633957,0.002872151509539295,0.029750453710388168,0.43090151562790807,44,34,75,69,3
0.00019346524216521958,0.0024959327371361904,0.02836998792649903,0.38397019372053437,42,40,77,70,3
0.0001822510931851738,0.00248282147007859,0.027678213834396847,0.4217051352613387,40,30,76,74,3
0.0001983338829513646,0.002484768747111887,0.028041910389309012,0.3930933983065171,40,28,76,75,3
0.00016989492522857198,0.0026631674849364995,0.026725997392837517,0.4024629156526715,41,34,79,72,3
0.00017287198750316017,0.0025000915487611757,0.025820249703468426,0.3990234178845565,44,32,75,74,3
0.0001479603337086243,0.002554540982543851,0.023928790280605773,0.36434858146977894,44,42,81,73,3
0.0001451563941016149,0.0022735678836999017,0.0224897210454709,0.3485371494208044,34,32,74,73,3
5.1502575708928754e-05,9.671755777291754e-05,0.004404308591055556,0.013176987161001576,20,12,69,69,4
5.3589393619978305e-05,9.212960138254299e-05,0.004270331974570736,0.012450871357077531,26,12,71,65,4
5.238947282601148e-05,9.033102785143498e-05,0.004128863418228908,0.011284092084157244,24,14,75,66,4
5.261327884918931e-05,8.73457645862551e-05,0.00438018566452382,0.011654048754168566,24,14,83,65,4
5.026931881755398e-05,8.46747172876647e-05,0.004412033556368586,0.011865365100954534,32,28,75,79,4
5.073202835311937e-05,8.742354329464894e-05,0.004458360324238232,0.012777983026061014,26,28,75,73,4
5.112033371026914e-05,0.00010681100641769072,0.004360197446814625,0.014260049183791748,18,22,75,66,4
5.400776545817255e-05,0.00010397708021367209,0.004305489409415143,0.014113712316594546,22,18,69,72,4
5.4504613980105674e-05,0.00011086850286306717,0.004269809134944942,0.014204596469989159,18,18,75,73,4
5.259563043380303e-05,0.0001054986943649633,0.004255184647668203,0.0143374543678508,24,18,75,74,4
5.983939443641615e-05,0.00011515539239662087,0.004852487581796214,0.013397879362815895,30,16,70,74,4
6.947733842637316e-05,0.00013173408887743834,0.0054315659935487625,0.013259318775041804,32,16,56,68,4
0.00015513191793875474,0.0002888458718403109,0.011226551156147214,0.026315496379627063,32,18,60,67,4
0.00015870323327697733,0.000528766609428073,0.01164673611018809,0.051365021784043216,28,18,73,56,4
0.00014169692862891757,0.0005701682940452487,0.01114550312859032,0.06935525064113844,32,18,68,62,4
8.436893745591737e-05,0.0006150064573908346,0.009189708224136532,0.07950801561242546,28,14,81,58,4
6.032452372273298e-05,0.0006117592719218383,0.005495814525350032,0.07380591959029065,26,18,74,56,4
6.127699986502598e-05,0.000549849781103241,0.005004883639619375,0.05859604186210232,32,22,73,50,4
5.803811664943357e-05,0.000347641944735121,0.004917159400399611,0.04017727586669535,32,18,75,62,4
6.025469701935397e-05,0.00028121727544953916,0.004864253887946283,0.02770259869563583,34,18,77,72,4
5.7378581382469014e-05,0.0002740673930203146,0.0048886483398011184,0.02848587944122411,26,10,77,67,4
5.4842551724574665e-05,0.00016596619949516797,0.004863454295134844,0.019361014482741808,28,22,79,72,4
5.385004150419598e-05,0.0001786347649141931,0.004700711876507481,0.02102777395153805,28,26,75,69,4
5.298639392428766e-05,0.00018485319285741072,0.004628566110994043,0.021657941499724477,30,24,77,66,4
