f1ch1,f1ch2,f2ch1,f2ch2,f3ch1,f3ch2,f4ch1,f4ch2,Category
1.6041519922410183e-05,3.04742637645922e-05,0.0025405868969609045,0.0032899581195363864,36,35,105,83,0
1.976676186558958e-05,6.0689036689299684e-05,0.00278263816139711,0.004468961288253244,32,6,109,87,0
2.819542282068509e-05,8.47519748397054e-05,0.003284734527310302,0.0068333463011338086,28,12,97,78,0
0.00010905190838395223,0.00045458753045132127,0.010942494197441177,0.03189175828771906,10,9,91,43,0
0.00031417469844104433,0.0007873491975597628,0.03192587516324572,0.06500721427981353,18,10,57,48,0
0.0005150172119195263,0.0012285742493910502,0.0541039047801992,0.10696223829683188,22,22,59,49,0
0.000588227758089458,0.0015328593463201702,0.0681412457067131,0.14011829808998974,22,24,73,61,0
0.0006475874127365047,0.001422254483701421,0.07546283386874462,0.15298518237754488,24,24,74,64,0
0.0006215632840488142,0.0015617016549327968,0.06525401912234965,0.17131915600448372,20,24,74,58,0
0.0005275977093518972,0.0013494092858324848,0.058528317325791245,0.14649007740770278,22,20,74,58,0
0.0004873906011026084,0.0013364680566233704,0.06078304677944655,0.139742799449649,32,20,74,55,0
0.0005394422356286279,0.0012608297963499781,0.06317622194096105,0.13684537133227467,24,18,71,57,0
0.000511548874990585,0.001019589617778094,0.07273907038960697,0.11900502244876364,24,26,70,61,0
0.0004959267663135878,0.001162324988011032,0.06512681956941103,0.13531427883859257,18,24,76,59,0
0.0005425268240944494,0.0011684832371703087,0.06718530490461028,0.1270471066596046,26,20,73,62,0
0.0004656840577143155,0.0015157560998906813,0.06349935497755427,0.15027980512044528,30,22,74,58,0
0.0005130733564418843,0.001431196552559464,0.06133813366574498,0.14480443501114995,30,20,66,64,0
0.000523941770160816,0.0013359675586811694,0.06291217109226314,0.13588052042363732,30,20,64,65,0
0.00038985355284108943,0.001289500459673549,0.05648828970708205,0.13715095426577498,34,26,73,59,0
0.0004199598681706582,0.0009165900693707276,0.054530388433203014,0.109541055931481,30,34,71,69,0
0.00036243494384066363,0.0009315746864378384,0.05324845034189553,0.11397231344553509,30,32,67,74,0
0.0003517841314352005,0.0009331500579805998,0.05589057827368274,0.10445799914800229,28,22,61,75,0
0.0003891598691253298,0.0010231115166097356,0.054647782726436556,0.10894780800638323,24,18,62,74,0
0.00041201405006450575,0.000906903902177484,0.05846213965900558,0.09728884728098004,32,18,63,71,0
0.0004135618422805011,0.00076321256728835,0.05378963675593773,0.09045173131083152,32,20,68,78,0
0.00038730679478750986,0.0007988135266975906,0.05040444867584726,0.09439931442794461,34,22,71,72,0
0.0003748362107427557,0.0008552937810664431,0.04975138096532473,0.09595128826309957,30,22,69,75,0
0.0003180312744075209,0.001043533062344042,0.04393207214219625,0.10580636742493547,36,26,73,71,0
0.00032893275389652516,0.001001587666697091,0.04522790160089304,0.11059277817248753,34,22,76,65,0
0.0003665857614695118,0.000854240556022125,0.04863828514720665,0.10494437244330436,28,24,81,70,0
0.0003605345606501064,0.0008850792974334909,0.0490343508997485,0.10203433152702016,28,18,78,68,0
0.00039279188367044853,0.0007937285764857693,0.053125981972144944,0.10057282174650535,26,26,74,69,0
0.0004046477277627599,0.0007371066639748595,0.052590948582307964,0.09816044959450879,22,22,69,68,0
0.0004075762899872465,0.0007287741834084979,0.05600349660442262,0.09705593924125142,26,26,69,68,0
0.0004103636136374398,0.0006806113837170333,0.05530927644410203,0.09019972531904938,24,24,69,76,0
0.00042697698326820056,0.0007206306739984106,0.05836616340116482,0.09248450659331574,26,26,69,77,0
0.00042941325663352266,0.0006806984879677431,0.057552745526524146,0.08841511756261033,26,26,76,79,0
0.00042640845102269237,0.0006887524484011097,0.0529465197961829,0.0924966925144675,28,22,75,79,0
0.00040369215067569456,0.0006767626393932084,0.05059051030918836,0.09536302146548113,32,24,75,70,0
0.0003200068204407872,0.0005523309319853189,0.03868171250655551,0.06816356679724109,18,30,73,75,0
0.0002746929522911428,0.00035877836468749177,0.03105663179511503,0.04879976485686125,14,22,64,63,0
0.00015330260337252652,0.0002194879527287002,0.017836781232539796,0.025319062422507265,12,14,76,65,0
7.95171250531803e-05,0.0001838177294659165,0.007015383260416085,0.014557358939003666,10,8,81,62,0
0.000188181891488902,0.0004733252042145087,0.024031988814143448,0.04620474135560372,16,14,77,53,0
0.00025333610007180615,0.000854910307942205,0.03478520181363401,0.0827134048544675,20,22,73,58,0
0.0005780663274812523,0.0012259998947199693,0.05522698837995143,0.11717380516486185,18,28,67,58,0
0.0006826714280918283,0.0014347179473541318,0.070020389221797,0.14519953785623063,24,26,61,58,0
0.0007177386255728569,0.0015662182246623329,0.0705954349222242,0.1482128066392869,22,20,64,61,0
2.644440082492698e-05,0.0002899186730134288,0.004198891496977638,0.01869837203180792,32,18,96,51,1
2.8117101036479807e-05,0.00028345736703732006,0.004007214541863871,0.017850958386731727,30,12,95,51,1
3.076720512349433e-05,0.00021895549519832132,0.004619882704437763,0.015435350632634792,30,14,93,62,1
2.971148712791147e-05,0.00015052829048255056,0.004532364344525493,0.014739700690463126,34,16,93,64,1
2.715746185404744e-05,0.0001321467646515494,0.00443730804584093,0.01521305365915493,36,16,102,65,1
3.535994686378211e-05,0.0001410662185397352,0.005006375765467132,0.015501370374185816,36,14,105,68,1
7.528298161729376e-05,0.00023346125534468666,0.008456530339591099,0.029473823827738947,16,25,86,60,1
0.00047440261429736354,0.00043283241503374746,0.03708933673246369,0.048944556915612544,8,16,47,52,1
0.0009363902755164947,0.000777700391222658,0.08403128652888557,0.08386662948629724,14,18,54,54,1
0.0012378978982988795,0.0011775894707751933,0.12754862839279552,0.1271611784626447,20,22,61,57,1
0.0014345502912909167,0.0012666845828655925,0.1461490052851306,0.1395759812023934,22,28,59,57,1
0.001114294038689101,0.0013619322362931796,0.13637238720734493,0.1435876743488301,26,26,64,60,1
0.0008857053406440335,0.0012297904780200115,0.10865558856251337,0.12150473224130183,26,26,69,60,1
0.0007070202744917334,0.0010023667974119051,0.08118732336009961,0.11136603162560593,24,28,68,64,1
0.0006326569225401245,0.0007648074012410952,0.08094199563219219,0.10032047555136407,24,24,65,71,1
0.0006074396222344739,0.000703246448252605,0.07321090072035152,0.10051939093688103,22,26,70,79,1
0.000564041133645297,0.0007901650885805089,0.07301550071359078,0.10892940296837744,22,24,64,82,1
0.0006285961609832035,0.0006952355702501286,0.08079205120686088,0.09677077454893065,28,22,65,78,1
0.0005820317820884435,0.000720379965562811,0.07373862452687835,0.10249592651004602,26,26,71,78,1
0.0006482295038755242,0.0006978018903581137,0.08256317070527104,0.10353895636883366,30,22,70,73,1
0.0006511276720462883,0.0007037683178096367,0.09172935310012019,0.1079837590508867,34,24,69,73,1
0.0007868776631587584,0.0006891718836856103,0.10400577925092022,0.10615605490710563,28,28,68,72,1
0.0008640865470712628,0.0006465420655504561,0.10960831193910103,0.10188890224570364,24,30,65,76,1
0.0008316860258591549,0.0006776232537238134,0.10514773389285074,0.10379360732445612,22,30,65,75,1
0.0008304186094483031,0.0005776657387128942,0.0969308666638565,0.08792766234706709,20,26,60,75,1
0.000607420557924761,0.0006591005231862184,0.0854995296337062,0.09449839226015873,20,28,68,70,1
0.0005934017892589396,0.0007231701458892374,0.08292805630489578,0.09206520780522233,28,20,66,62,1
0.0005758801368198829,0.000651222028845996,0.07929273289994418,0.08312020847042721,30,22,59,68,1
0.0005223411079084934,0.0007206390539301803,0.07351526750908176,0.08500593514538525,32,20,59,67,1
0.00047660505161602315,0.0006607810648573251,0.06323257902284356,0.08519904366872766,32,28,60,66,1
0.00047772742688084643,0.0006750470772008634,0.06172736142114072,0.08849849163466335,26,24,66,61,1
0.00043590977858760954,0.0006495780413359041,0.05868006814756353,0.08687136867968032,26,26,66,60,1
0.0004635094831305335,0.0006404828596706976,0.06254426105271496,0.08240011740140178,26,28,66,66,1
0.0004961743367259197,0.0005895569014892323,0.0699351181421576,0.07982304867019552,24,34,65,67,1
0.000499239720053019,0.0005789835507591778,0.06577728540088881,0.07454697870530792,22,26,69,70,1
0.0005444642691024638,0.0005687282681038579,0.06717834266712364,0.0767401776112293,22,26,65,67,1
0.0005628619476420246,0.0006188566169293636,0.07143543103140851,0.08111970598198087,22,24,63,70,1
0.0005757079164602704,0.0005990302175793148,0.07467432501962172,0.08254881619714735,22,22,61,73,1
0.00059195318035294,0.0006031526903979532,0.07693935850631486,0.08427697545608119,20,22,63,78,1
0.0005546156331402474,0.0007242933134544127,0.07284625893679045,0.09046335574942625,20,20,66,77,1
0.0005482608998866753,0.000711093845077321,0.06789598736180401,0.08430234000573515,24,26,70,67,1
0.0008698309488332004,0.0009541146561678994,0.10484608387364489,0.10296275643507011,14,18,63,63,1
0.0009967214881395165,0.0011687420976091785,0.12520973455327059,0.12594191828140025,18,20,55,59,1
0.001163684791007519,0.0011799403062822224,0.14191840462734143,0.12601454337262902,24,18,55,54,1
0.0011060959312303505,0.0013240205472056182,0.13732762899132833,0.1466332917229765,22,20,54,59,1
0.0008886410782801146,0.0011718266586937022,0.10247759270719767,0.13201509517435808,20,18,59,55,1
0.0007856343496328762,0.001069924631824655,0.0980860060380306,0.1300648210212775,22,20,67,54,1
0.0008675906367092679,0.001166995335954854,0.12120249078305477,0.1450596451372567,26,16,64,60,1
0.001098763841177566,0.0009815804607559695,0.12831986609320442,0.06862480411496573,22,12,59,56,2
0.0012078806408056468,0.0011780004878417334,0.15229516782205496,0.07030469475759718,24,10,59,55,2
0.0012831289086551823,0.0012372087827815653,0.17408472415731813,0.07204197391361691,30,12,68,51,2
0.0019126744418752329,0.001153440279915118,0.2180059789522384,0.07367665482675086,22,12,63,57,2
0.0019452533663589246,0.000701109575454924,0.2070246693918618,0.0631808824668006,24,22,67,68,2
0.0018026340525079763,0.0005282160863649898,0.21052651595498306,0.06006542355547305,18,28,73,74,2
0.001839261360762606,0.0004017872118032607,0.23371323529037366,0.05554875417086583,20,28,69,80,2
0.0012165028957791114,0.0003303529631268764,0.19553260065507608,0.05612138487455137,38,32,73,78,2
0.0011826906293475026,0.0002790116403277252,0.18874889178607016,0.05119704543907191,42,40,76,78,2
0.0012010788975366055,0.00026457256862618875,0.1927696916217884,0.05153497707179584,40,38,80,79,2
0.0010935903734092076,0.0002637101923857842,0.16550303118236628,0.04974017516392296,36,40,79,80,2
0.0010220866830847363,0.0002460533762961041,0.15978388644191882,0.04585381436174854,36,38,80,82,2
0.0010203096881648676,0.00024118841906395144,0.15873001686980487,0.04700648074911366,32,46,78,83,2
0.0010846808565032296,0.0002488547608289163,0.1668122194923985,0.04957675907247454,36,46,77,89,2
0.0010571736301366818,0.0002565001010962504,0.16867967212161875,0.05065101647773956,30,42,78,90,2
0.0010970140365759245,0.0002540769261697466,0.17361153936585116,0.04965484046529622,30,44,79,85,2
0.0010493542982691322,0.0002669870743826333,0.17690371776773217,0.050247044749581735,36,38,81,84,2
0.0009430491877452383,0.0002639463397002937,0.1636371016044627,0.045621018346016194,38,44,83,79,2
0.0009181471975600191,0.00026897979329842925,0.15760748241291483,0.046184117550498824,36,40,80,85,2
0.0008245069061911997,0.0002561185802676097,0.14543730080709258,0.04815856610428253,38,44,81,88,2
0.0007893470693717386,0.00023362817926884079,0.13709299071014341,0.04406636039646598,36,38,84,87,2
0.0007785435007655267,0.00021701790799157544,0.13693893920190503,0.04024390270681346,36,40,83,91,2
0.0007757286998887087,0.0002099382798932032,0.1364628560373341,0.037709663221373646,36,38,90,84,2
0.0008601858162907102,0.00020401690337658668,0.14482263373109686,0.03406657860366626,34,34,87,87,2
0.0008344921148258622,0.00021085669891237043,0.14595681307411582,0.035076383819732965,36,38,85,87,2
0.0008904921139974757,0.0002324132145992803,0.14985839951348628,0.038623444132457996,34,36,78,92,2
0.000815956891597638,0.00023268700264948656,0.14840156251644715,0.04076615148181228,42,42,81,95,2
0.0008799039943402837,0.00023070773737202802,0.163798507221706,0.04077882649206158,42,42,80,85,2
0.0010688398284298948,0.0002301139000304525,0.18236093762779698,0.04419611877736691,38,40,74,82,2
0.0012225805137280475,0.00022676103270871125,0.2035546227038842,0.04522965771099823,40,44,81,80,2
0.0012415786943554732,0.00025311309047984157,0.20548390034767175,0.04646881596601684,46,40,75,75,2
0.0012622699390068828,0.00027423418548200583,0.2095766698121539,0.04998582900976477,46,42,79,80,2
0.0011836725776890212,0.0002560361793339289,0.19929158138071232,0.048766078341776806,36,42,79,79,2
0.0011974731328354689,0.00026577044723685993,0.19467589655369255,0.04969954377559726,46,44,78,82,2
0.0011491701383414899,0.00023631806448220927,0.19585491510811506,0.047595265414623694,38,38,86,82,2
0.0010157328134485421,0.00021913023968228796,0.1685064484701834,0.045693255791951076,38,40,85,86,2
0.0009585149698543446,0.0002007384448940139,0.17072612546613056,0.04263227684761156,38,44,87,86,2
0.0008466841301198318,0.00020575080941041195,0.156648424471626,0.03983824608803022,40,40,82,80,2
0.000918233995401871,0.00020772465274578833,0.16585843398530772,0.04044570551657175,34,34,89,81,2
0.000897169176622799,0.00017895770773489439,0.14979390957706148,0.03331121082066061,28,36,82,83,2
0.0007769892660710631,0.00018334444124194812,0.11820399044855864,0.028037791774830408,26,28,76,80,2
0.0007046830636601424,0.00020756897039586424,0.09865777970991288,0.021841031873824697,24,20,69,85,2
0.0005079521149317255,0.00016853171688772974,0.07089998682076229,0.01801355785598232,28,16,57,90,2
0.0006496863363955098,0.00021780986782312916,0.09291797730835166,0.023679096283060478,24,22,68,87,2
0.0006642386452824673,0.00022734646836701264,0.1020223924873657,0.029629547785127847,24,24,77,93,2
0.0008415819762172505,0.0002056253513762119,0.12893387474510412,0.03463096883880902,30,30,78,96,2
0.0008515448739828222,0.00026819686150742796,0.13717603155124963,0.04261866261946873,34,34,81,90,2
0.001027667560654188,0.0002778899871203057,0.14589588537131035,0.04660911963563072,28,36,77,83,2
5.1627939729424964e-05,0.00040848186200175137,0.006169943944100637,0.04337127927799733,18,14,78,65,3
0.00010197868784779003,0.0005249812094456546,0.008449688988411032,0.05844530089936542,9,20,70,70,3
0.00013700505104658465,0.0005620368604480355,0.00978534666665607,0.06547973024841505,10,20,56,72,3
0.0001524166207119291,0.000989258617331332,0.013510776167899525,0.10707144221373896,18,18,63,63,3
0.0002052255350558035,0.0015235537683569716,0.018699982544783805,0.14322804543180148,16,16,66,61,3
0.00023331148054088304,0.001851136536148977,0.0253236925564921,0.2063650650294931,18,20,71,56,3
0.00027458428895233,0.0022170755834677956,0.03243729958445102,0.2651309345330312,24,22,66,60,3
0.00031094143959250434,0.002596551689867302,0.03846633529037724,0.3227612537178559,24,26,58,59,3
0.00034582548741628004,0.0026394349646457556,0.040184567009904554,0.3723614672762919,28,32,60,66,3
0.00030081287809473193,0.0029317849476355605,0.041067675795754474,0.40869506402201455,27,30,62,64,3
0.00034542903786392534,0.002970973866638319,0.042110584308119266,0.4180780155534317,24,26,70,71,3
0.00033810535837122056,0.0028189988162252775,0.040069415192770935,0.42635397086815,24,30,66,74,3
0.00037336470491030303,0.003076647330624779,0.03997549567390217,0.46046052071301335,24,32,64,66,3
0.00039265721601760726,0.0029486280439308967,0.04379150533651072,0.4622103256913793,28,34,57,65,3
0.0004142375938726855,0.0032772011960475115,0.046384392403521706,0.47905088403860313,22,32,55,61,3
0.00042781097000029275,0.0032819624523219115,0.05260486186211259,0.4816921539046924,24,32,53,63,3
0.0004293010383006037,0.003250791050735531,0.05211127421138267,0.46335151437882616,28,30,58,72,3
0.0004395440933288398,0.0029997032030327103,0.04969168565498969,0.45928977070820054,22,32,59,66,3
0.0004131671520707459,0.0028372126121336137,0.045274310519769025,0.4246955496835626,24,30,57,63,3
0.0003770237885431147,0.002501610530095566,0.03996017370986943,0.3822267150210505,22,34,63,72,3
0.0003859539482040291,0.0024870436769716692,0.04143046269954247,0.3666775471772392,18,28,64,73,3
0.00041868489151882947,0.0022061021633097136,0.04241888406148049,0.3273985300497401,20,34,60,74,3
0.0004672623809457035,0.002352047694532397,0.043128032444730506,0.36702351985938453,16,42,61,72,3
0.0004592020881537915,0.002435370931225679,0.0437618589042033,0.3516877702184292,18,32,52,69,3
0.00047129210734792433,0.0022298320030679887,0.041583779368857605,0.33472427429959767,18,38,57,65,3
0.00040349679491444204,0.0021616090818940615,0.04072666902357979,0.34197795346369414,22,36,60,66,3
0.0003498758568783897,0.001996173529857749,0.03804873671904717,0.3116365609957176,22,36,65,71,3
0.00030495800751572093,0.002045006898134205,0.034738765452395806,0.31277153973099253,28,36,69,67,3
0.0002612978025100104,0.0019517379716696636,0.03239752017023528,0.2914913666349558,28,34,68,74,3
0.00026347593799766516,0.0018794355246682438,0.03325209870100394,0.3296729414926042,28,32,69,74,3
0.00030385935546767674,0.0019384505211428146,0.03614718586014684,0.3260555983535477,26,26,63,75,3
0.0003877622852037884,0.002036749255816517,0.04109132710363948,0.34998399226187915,30,32,59,81,3
0.00042139326678680114,0.0023148912473620704,0.047271526599361006,0.37139530532237164,24,36,54,77,3
0.00040969525452050093,0.0022814467381332207,0.04761563622886646,0.34227092487498145,32,32,55,72,3
0.00042701980694602964,0.0025757855538926073,0.049656499777696185,0.3725845625426669,32,30,58,74,3
0.000420562316054144,0.0027965187919543623,0.04871891807510284,0.36960136782157726,30,30,62,73,3
0.00040073724927969635,0.0026720044232526646,0.04625569723050501,0.38136044097424443,26,26,68,70,3
0.0003709919674119727,0.0025932522742659414,0.04461279166819585,0.3774271845863468,28,26,65,74,3
0.00035396224555797937,0.0025630553413807516,0.04388330344401927,0.3851195805782639,30,34,71,69,3
0.00029537650115054324,0.006086410133304307,0.03550882814210113,0.4951192461331832,26,10,68,66,3
0.00024358779072519205,0.005977697806586967,0.029304651154954696,0.43785681257404846,20,8,71,63,3
0.00022899710227691268,0.0056236939100341434,0.024000403956483517,0.3897452719592395,22,4,70,61,3
0.0002068503659647073,0.0015095698522510747,0.01744692615772351,0.1639659733555216,14,18,68,61,3
0.00026026318746659563,0.002163554988771005,0.026004627960643203,0.25885434914825906,18,26,64,63,3
0.0003116710382660103,0.0023108192422709646,0.029068360521578667,0.3033819758053371,22,26,60,69,3
0.0003614013964480786,0.002522280351898106,0.035425961930666466,0.34100489208942913,22,32,57,68,3
0.00035208512462335805,0.00279868384112657,0.03630636737407244,0.37200549609061007,24,36,62,71,3
0.00028383589543416927,0.0022243054534014156,0.03381844845409992,0.32904271121789824,22,28,71,77,3
0.00021572546022893393,0.00024317689289430868,0.016085743119449276,0.01874620628205584,12,16,51,46,4
0.00019538557868422666,0.00023053394224920403,0.014003299235060732,0.01630019544643784,10,8,67,47,4
0.00015004417474953442,0.00025615395537688856,0.009756709591975521,0.016378600889815617,10,10,77,43,4
5.4740891730190294e-05,0.0002184341541995487,0.006592230017792082,0.012602181082875991,30,8,84,49,4
6.355574797749141e-05,0.0001960703165027638,0.007944097948313876,0.012382621480710026,22,14,83,48,4
5.505001061410505e-05,0.00020442859290283156,0.006783849458166383,0.013481677756163976,24,10,90,40,4
5.380773940676829e-05,0.00017064684203987022,0.007122445710585648,0.012902182040848538,22,12,87,48,4
4.670760272209493e-05,0.00011630417270506636,0.00601405955659998,0.011632503164808471,22,16,90,63,4
3.073928274394265e-05,8.260906488434446e-05,0.004313531577229657,0.010708033961388204,24,18,101,71,4
3.737478455910972e-05,7.709657272209704e-05,0.004601215623774384,0.009523228219420076,20,22,103,74,4
2.2695137178334598e-05,7.147058313102724e-05,0.003465246875448698,0.0074513585776322415,26,16,107,80,4
2.4356695401662752e-05,5.8721758521393085e-05,0.0036095962836210803,0.006359960251378618,32,18,95,86,4
2.2296231557125746e-05,4.407792118319202e-05,0.003628617413571443,0.005025867148838967,24,26,91,80,4
1.9282311092069876e-05,5.470150444185572e-05,0.0030918437707528343,0.006432167126195159,34,16,93,77,4
2.225051824031803e-05,6.349078070870976e-05,0.0032164019591879862,0.007161071700619961,36,18,95,76,4
2.2525762062721566e-05,7.175626448090093e-05,0.0031645943085669348,0.008394996255802858,38,22,97,76,4
2.118610755843655e-05,6.219990381480534e-05,0.0029192524217173015,0.00782418119620852,38,18,96,79,4
1.9093751889777865e-05,5.129081935440206e-05,0.002903941716567541,0.00675073388662235,38,24,104,75,4
1.8758936638877764e-05,4.7693297249925756e-05,0.0027642267737350407,0.0059692863873122256,38,14,112,82,4
1.7087778888797122e-05,3.160483184445657e-05,0.0026195536182956735,0.004203909149585834,44,25,108,86,4
1.5739416091316234e-05,3.5335633454003044e-05,0.002690517260468551,0.0045779537897752045,42,24,106,81,4
1.6523161495478626e-05,3.5677438894128435e-05,0.002773058009978665,0.004325866660574316,34,27,99,82,4
1.648931310502103e-05,3.324955797650123e-05,0.0027649771619512793,0.004045249689748467,36,30,98,80,4
1.579072329730379e-05,3.9671405584323674e-05,0.0028241254377325,0.004684075730805359,44,32,107,82,4
2.616288319242413e-05,3.6746254230723764e-05,0.0034494790209189862,0.0045164896762566464,28,24,106,82,4
2.276699751484598e-05,4.0619648402745475e-05,0.0033761534703453393,0.00511403613142468,36,23,108,84,4
3.381876382263367e-05,4.210070330210597e-05,0.004612918407969827,0.005070934846218526,22,18,104,86,4
0.00015409034862740338,0.00014907822135946426,0.009901780588872493,0.010231805720218692,6,10,85,89,4
0.00039423007814352623,0.00023838113929595364,0.021564490247095315,0.016208333763564765,6,10,52,61,4
0.00041022208483263464,0.00023948532286521718,0.023006148702809877,0.017140587411781365,6,12,57,66,4
0.0003085928512319412,0.00022027284582579475,0.018533361182809113,0.019995456473038856,6,22,68,66,4
0.00029467035626156785,0.00024760787446034225,0.019140336834303648,0.024305491736147166,5,14,67,59,4
6.95347791574802e-05,0.000334461307202666,0.009042115685364439,0.02970283700875165,20,15,87,61,4
8.447648948187931e-05,0.0003521439680307817,0.010833960381832312,0.03560695315102544,24,14,80,65,4
0.00012178914616858129,0.0006451123818339597,0.014529164931054854,0.06637259578909961,28,14,68,69,4
0.00011112974714953061,0.000587915743292907,0.01325402933391536,0.06505631168658532,22,14,69,61,4
9.382178910649432e-05,0.0005098736083495159,0.011358348369368377,0.06077945378598282,28,16,69,56,4
7.36541442964262e-05,0.0006295957645279757,0.009498734097092424,0.06446224322599316,22,14,81,53,4
3.951800055145367e-05,0.0003552383522062747,0.005008234847694088,0.03274776130795843,26,12,84,54,4
4.068122997727505e-05,0.0003665443165824794,0.005225074323144145,0.03426878534299633,24,10,91,51,4
3.7313779268357505e-05,0.0003594745376681553,0.004796760642379239,0.03430387197507957,24,14,93,57,4
2.4690002084121493e-05,0.00023741867887591507,0.0038752468092125535,0.02462935143990345,36,14,94,66,4
2.4600492050865996e-05,0.0002614364714006643,0.004088461998176286,0.027225429924306297,42,18,95,57,4
2.2541322518115116e-05,0.00022500264748966797,0.0037827662820051847,0.025355120246414217,38,20,103,58,4
2.2216026701457362e-05,0.00022344655473159568,0.0037471014805531074,0.024589417702305286,36,18,95,61,4
2.4606831655419357e-05,0.00022022251724580723,0.003620195329694527,0.025281753172392084,36,16,94,61,4
2.3951202132735295e-05,0.00021017343327899834,0.0033298062632083412,0.02059044836914924,32,14,90,58,4
2.5233933275342225e-05,0.00019396607111950897,0.0033709495640959555,0.021720188747453427,38,16,86,64,4
0.0002654563101288824,0.0006649762138787328,0.04137787703618752,0.08361068032373191,34,24,71,59,0
0.0003049329063079802,0.0006869423317018179,0.04499458242484073,0.08569189574110615,24,32,69,62,0
0.00031615786072442876,0.0006595991073983578,0.04620834304363134,0.08795739723090956,28,30,75,62,0
0.0003235323714756307,0.0006900593182248131,0.0466027348597787,0.09145703888210309,28,26,72,59,0
0.00031688320096452465,0.0006438176781469028,0.04354772117410717,0.08716001864524235,32,32,77,59,0
0.0002559937727264491,0.0006407219885581123,0.0359205104553481,0.08009028978757426,32,24,82,68,0
0.00022963340306302542,0.0006309439607995708,0.03640875221887402,0.07297702414310378,32,18,84,71,0
0.00019342806451065958,0.0007196886331493657,0.03139920527779713,0.0819521244561299,30,18,84,75,0
0.00018379157894481309,0.0006935424206032299,0.031435052231943775,0.07913165847633202,32,24,91,75,0
0.0003383876461975375,0.0006439236502084409,0.044184297268496826,0.07991497737536601,16,26,75,67,0
0.0003899582070642773,0.0008391008151803983,0.04888042832056819,0.09575681102077431,22,30,76,60,0
0.0004926015492145332,0.0008022699467764411,0.05524678528863719,0.09211485835172743,26,32,73,66,0
0.0005533746596719498,0.001006827300683322,0.06076056382403556,0.10475378836400272,24,30,67,57,0
0.0005153409075880889,0.0010531054646219274,0.053439493361624305,0.11314595947706163,24,30,75,58,0
0.00046457174559435654,0.000946173623947078,0.05094641635243822,0.1104274732993179,22,34,77,64,0
0.0004501330778664749,0.0010509709789038053,0.05198946427521206,0.11719800103375834,22,32,76,65,0
0.00040973811305148493,0.000960286231069568,0.05298807965957204,0.12381834864044657,26,34,80,72,0
0.00036902927633340716,0.0010342783733461017,0.05653769671545551,0.13055764635027137,34,32,74,71,0
0.0003479934393772874,0.0010035801011485316,0.05411265947742722,0.12934266108531148,26,34,75,75,0
0.0003573771347161298,0.000946953211099831,0.054260127770211164,0.12106398910694614,28,28,73,74,0
0.00032349698157450196,0.0009252842382976872,0.0482673283357466,0.11325371827119114,24,30,74,67,0
0.00032830449942275567,0.0009303416606556415,0.04889810858602641,0.10776345679946807,26,26,73,60,0
0.0003399926014696121,0.0010362657400786728,0.04944216103931776,0.11298996844835564,26,26,76,63,0
0.00041923896679710575,0.0011097474106540608,0.05283982906677591,0.12914539013739434,24,26,71,57,0
0.0004024114205458042,0.0011266233084092387,0.05610797504392463,0.13746736534720785,24,24,75,66,0
0.00038358857211731807,0.0012158327571640383,0.05355661185809783,0.14538004701135704,30,22,70,65,0
0.0004005119024313742,0.001113900873313632,0.05725569098295543,0.14277914553154233,30,28,68,67,0
0.0003483541960426845,0.0011338751323149306,0.049815071238746705,0.1368609099777256,28,22,69,70,0
0.00036217810174658826,0.001051976211849679,0.05083498106243568,0.12827388440482776,32,24,68,69,0
0.0004022554156930833,0.0010190051602819992,0.04733899172796975,0.12489548684111802,24,24,72,70,0
0.00033878352840364625,0.0009910306058550596,0.04690309933419998,0.12255439875017304,24,24,68,69,0
0.000362762648316326,0.0009833622767719825,0.048641527079247564,0.12685108502957854,30,26,70,66,0
0.00033017499914854615,0.0009540282701946454,0.045681565353853676,0.12690287437040917,30,30,65,63,0
0.0003258149618921888,0.001175078235064138,0.046574977040524816,0.13518419799368062,32,20,69,63,0
0.0003325625882487316,0.001231354856964801,0.04793760695112919,0.13376522875214142,32,20,69,59,0
0.00035190628816597776,0.0012609680542802638,0.050596632047138504,0.1330022239339502,32,18,69,57,0
0.0003472009845133208,0.0013807728845578917,0.04843061579484395,0.1379508611278861,28,20,70,56,0
0.00035164972719670806,0.0011222975234294473,0.05085914852870277,0.11433425279948896,36,26,71,55,0
0.00033656215898049304,0.0011546033263656855,0.0451248080223953,0.11515646566755199,32,28,68,56,0
0.0003161177403982121,0.0012121490717567807,0.040128001561829246,0.10829952446695434,32,20,67,55,0
0.000332429161782447,0.0011405016705648716,0.041148062858061336,0.10276554591297901,26,20,68,54,0
0.00040766822186326965,0.0011076792623379954,0.042692159444979436,0.10447147741558684,18,18,67,60,0
0.00042642364335594035,0.0011551035077572345,0.044843366932921964,0.11407185633172401,20,20,68,61,0
0.0004211301425105753,0.0010087458320137436,0.04802884898844005,0.11012020052815702,16,20,72,69,0
0.0003833317632396108,0.0011089328386211022,0.04698652989267287,0.12455586621605022,16,20,72,65,0
0.00033838647416887244,0.00130438827560972,0.04589801836136783,0.137426275377599,18,24,72,56,0
0.00035188834463790113,0.0011752442308508692,0.0453111215278343,0.12514745827483395,16,20,76,58,0
0.00036887454711957544,0.0013465273807373105,0.04407271340203542,0.12539007665571522,18,18,73,57,0
0.0003855043371982887,0.0011927343853031897,0.044728147208957576,0.11570078175795169,20,20,78,60,0
0.0006468119143183802,0.0006618803894550624,0.08586096086958112,0.08868824496899821,24,24,70,71,1
0.0006983950453241583,0.0006627874581287877,0.0833786459274628,0.08946241852812975,26,30,67,74,1
0.0006350517379737991,0.0006836352507406243,0.07006217401666215,0.09327437007719805,22,26,68,71,1
0.0005991405621887898,0.0007660691800862317,0.0717181630248997,0.09266672956315335,18,24,64,69,1
0.000526198509160682,0.0007914681879397998,0.06816318404029291,0.09627132313751603,26,26,66,66,1
0.0005159593868413633,0.0007123321966888276,0.07055287131515094,0.08941540146144913,28,22,68,69,1
0.00048696726579670766,0.0006578113416717398,0.07313271347568384,0.09021366917756578,34,28,69,73,1
0.00048656977593901395,0.0006203055059842571,0.07511783577448133,0.09029722838191177,34,32,66,71,1
0.0005285909968883236,0.0006396016398855914,0.0779186124771332,0.08831170882035694,34,32,64,70,1
0.0004831046163974347,0.0008142451529061225,0.06819269234827069,0.10253455554388201,32,26,62,66,1
0.0004937361004861326,0.0008696131722447103,0.06577635391788321,0.107119450493867,26,24,67,64,1
0.0006597305564563228,0.0009958468336681231,0.08169552910575141,0.12297530541073781,22,22,64,58,1
0.0007661909812932949,0.0010185086579975174,0.09447997812217433,0.12421539427524762,24,22,60,60,1
0.0008337348686403652,0.0009988315869487892,0.10206857397386329,0.11545363657146927,24,22,69,58,1
0.000917485984271072,0.0008719097574465961,0.11786043288292423,0.10156980744454637,24,24,67,64,1
0.0007641850513736622,0.0007817065518353627,0.10249865089442046,0.09211127167979138,26,24,70,69,1
0.0006900500561561915,0.0008402081205916992,0.09868149673464303,0.10221883341602117,28,22,62,66,1
0.0007783763007241686,0.0008717583500696467,0.10656864224109552,0.10939497091803166,28,24,61,68,1
0.0006880584433900986,0.0009238638919837464,0.09357694147646396,0.11885024299792436,30,26,62,58,1
0.0006661087502870583,0.000999186802714821,0.08842048782691833,0.12567692437594255,34,28,68,61,1
0.000625570730814969,0.0011240782119557007,0.08303680771937884,0.12890257288212187,40,28,70,64,1
0.0007058889145256407,0.001088819223957724,0.09600604367606101,0.12212735437110026,36,22,71,70,1
0.0007939074449098829,0.0010134065526776642,0.10902962621532476,0.1371988451898175,34,30,66,74,1
0.0008738789222798855,0.00093443131898696,0.11303395850563448,0.13273810086277146,26,26,60,74,1
0.0009521773495606675,0.0008274119186404785,0.11664619178900183,0.12082755122668802,22,28,64,69,1
0.0008446631961190123,0.0009343440630444984,0.10381517332086401,0.12479818622783116,26,26,68,67,1
0.0007756173253727836,0.0008620957262606863,0.09627486950990306,0.10413716772356592,20,22,72,71,1
0.0006381344709717372,0.0009070704571831485,0.08732846156258119,0.11064785665081793,26,26,68,67,1
0.0006450293226110523,0.0010275047536839293,0.09127733266631062,0.12439017675928364,28,26,65,64,1
0.0005453266352597725,0.0008141715845930137,0.08131123701682301,0.1079289047594888,28,26,69,75,1
0.0005555958830161687,0.0008261802082271505,0.07252507821766122,0.11204627752824817,24,26,60,72,1
0.0005644754632182551,0.0006615690371328228,0.06955017036505497,0.08556132770143453,28,22,58,75,1
0.00041442355358297864,0.000499764868112942,0.04911044326057697,0.06725925284246867,20,24,64,74,1
0.00040174913080578663,0.00046808787451605284,0.04620919038478332,0.06253043866145297,18,22,58,69,1
0.0003021717002338229,0.000444585115953596,0.036769041528153426,0.05930559030460719,24,28,60,68,1
0.00029443487188795506,0.0005679088067431512,0.03580917575228694,0.06363307890519619,26,24,67,68,1
0.00031922363061249716,0.0005384841811042602,0.03935862769288363,0.0664395868851316,18,24,66,66,1
0.00034914607513458415,0.000499955237163483,0.0433754232493318,0.07344964665345172,20,28,69,72,1
0.00036382233160654276,0.0004554401449394125,0.045616538734588305,0.06590494471764856,20,22,66,77,1
0.00033949577093750745,0.0005903806504299978,0.04283553793480721,0.073618922747658,26,22,70,72,1
0.0004164136896495033,0.0006779064171800906,0.05145991121811405,0.0857796212117457,24,24,61,76,1
0.0004110795178740838,0.0007305951304600049,0.05210974093327988,0.09257782159047447,28,22,58,72,1
0.00041930572721092887,0.0007971290170379654,0.05076148982484148,0.09909907369180493,26,18,60,69,1
0.0004773812694064877,0.0007306398215284389,0.06174150803545684,0.09107639823986884,26,20,61,71,1
0.0004464983304764208,0.0006808820209142434,0.061850312772907236,0.09036466981680776,30,20,65,71,1
0.0004896036030899027,0.0008632804786141007,0.0650417991086938,0.09743767890294583,26,18,66,69,1
0.0004445290480652134,0.000813023048611117,0.06568483726017492,0.10486638858675362,26,22,71,67,1
0.0004678760827624116,0.0007997473736070639,0.06254463121866335,0.10357026670822099,24,28,70,65,1
0.0004506483487299609,0.0008664466422710225,0.054974861438656306,0.1103028117994188,22,24,70,59,1
0.0006156978832594344,0.00018908541030724992,0.10575027004493648,0.029738801693736605,36,30,76,88,2
0.0006052750043235655,0.0001858785040852243,0.09619620117142046,0.030613678081986524,26,36,75,86,2
0.0005595363639996229,0.00017678696135666342,0.09424611096863865,0.030176407692122757,26,38,82,85,2
0.0005419462671639077,0.0001610180171573985,0.08882720985401095,0.028363010931473937,30,42,80,88,2
0.0005247572924853897,0.0001640261375662762,0.08406617341024296,0.028875632619821432,24,36,81,89,2
0.0004765066565510474,0.0001668045969496893,0.08276915529330116,0.0279997442870802,30,44,83,91,2
0.0004591744767104467,0.00017357296519802818,0.08354868450935816,0.029195574066456634,36,38,83,89,2
0.000491286793049433,0.00016677061394306019,0.08652654370451023,0.027756628212110737,40,30,82,86,2
0.000500417859772417,0.0001659345491416757,0.08647865807116342,0.02717283365821521,40,30,81,85,2
0.0005415151797682764,0.00020614990536850096,0.08441852996231565,0.027226882086667115,38,22,69,89,2
0.0006448033848452577,0.00027594640499374097,0.09381554585521655,0.030560220412625138,36,25,69,87,2
0.000733549188685975,0.0004490336715489275,0.10372163094343946,0.03814550389819155,32,18,71,93,2
0.0009485591295001993,0.0005738303628297209,0.13110577927814798,0.045958885515570515,26,22,66,83,2
0.0010436762516764552,0.000671261341186697,0.1498929526471197,0.05053712324925626,24,20,74,77,2
0.0009825953158819113,0.0005756513973936525,0.14188686894339228,0.04641465132864416,32,14,74,86,2
0.0008508350992575958,0.000419981783845661,0.1334429103567591,0.04489453414753585,34,18,82,77,2
0.0007866408103037007,0.0002649356066333748,0.12728227330168093,0.040196327171745365,34,36,80,78,2
0.0008659068717999982,0.0002673375347440104,0.13002263651891502,0.04217875518123015,36,38,77,82,2
0.0007926477527153239,0.00026105416048498715,0.1294185963908259,0.046934604801697914,34,40,81,74,2
0.0008488543629193384,0.00025998191321960595,0.1406414996768626,0.04469794287255781,34,40,81,76,2
0.0008362819208241424,0.00024803828367166825,0.1412144297823638,0.045223544835994306,36,38,86,86,2
0.0008560228661825691,0.0002332158182882111,0.14920082872320703,0.04289176200500121,36,44,84,86,2
0.0009018955149575869,0.00022868510287646287,0.14993269600486803,0.04120217737568103,38,46,84,87,2
0.000880134174482355,0.000245279595079893,0.14543236409369426,0.042689635580401876,42,44,82,85,2
0.0007272411651062044,0.00022134795354679864,0.12428469407770765,0.03864442659410852,40,40,86,82,2
0.0006385096827639453,0.00021257549303348655,0.10848555089707965,0.035782837776755984,38,38,90,86,2
0.0006066826905343999,0.00018723098226750435,0.10364932432211059,0.03274478404298032,42,44,89,88,2
0.0006327230246305617,0.00019485229819523272,0.10432750467040172,0.03172375213740974,36,32,85,83,2
0.0006487372687047361,0.00021756010578519665,0.10858679076946375,0.03335006212562763,40,34,80,83,2
0.0006639928978039899,0.00019290809028234542,0.10705845514731148,0.031542508584136764,38,36,80,86,2
0.000705524812932565,0.0001850700904120984,0.11492969633432511,0.02931881542062576,38,38,81,87,2
0.0006380027091260159,0.0001671471817497466,0.10930377905733138,0.02747994950194067,36,42,83,90,2
0.0006002402194081383,0.0001583846759412692,0.09903190333106819,0.026308789429378043,34,34,82,82,2
0.0005741764065720157,0.00018143392307745044,0.09877944331208847,0.02916984173011682,38,32,79,76,2
0.0006211507725348697,0.000172266607912444,0.09880302719521543,0.032920478690752056,36,40,81,75,2
0.0005815065243764166,0.00017040759430737216,0.09779580613725472,0.03058230622378942,42,34,80,83,2
0.0005792252067888468,0.00017506738777757133,0.10105190117547677,0.03193128278390048,42,36,83,89,2
0.0006020918325727402,0.0001877093122023541,0.10102803835663315,0.03224186013953687,38,38,83,92,2
0.000622061570887486,0.0002207468048641049,0.10572961949134917,0.033069966824733316,40,32,87,89,2
0.0006124157257139501,0.00021433152778987626,0.10474026276268958,0.03589885566327428,38,38,84,87,2
0.0006187389046775814,0.00020018430563895211,0.112160541538666,0.03463193047504914,36,36,78,85,2
0.0006117418944836195,0.00019039261916836193,0.11135453235129532,0.031413762643294055,26,32,77,84,2
0.0005755848987281647,0.00019196723012595128,0.09883084517696765,0.03021042836731627,30,32,75,84,2
0.0004945366230855731,0.00017463590505573665,0.08378738363018584,0.02890575012449671,34,34,82,84,2
0.0005522193868689604,0.00016698673736772953,0.08918977670934801,0.027977921677402644,28,38,81,81,2
0.0004971419555179722,0.0001615575714855275,0.07747884931259134,0.0269178291406404,32,42,83,84,2
0.0005486205353874922,0.00015041524716448445,0.0875229938316337,0.02485841079982491,32,40,77,84,2
0.0005739010524482167,0.0001487365431484475,0.09768024189350562,0.02657635497237333,34,44,78,84,2
0.0005568062107131613,0.0001687931807685046,0.09128750863275008,0.02744377374243997,32,36,81,79,2
0.000397172570993774,0.0018020933828383334,0.042390494153782536,0.300891175181157,18,28,65,75,3
0.0004097367031758708,0.001754957840094875,0.042514978618817326,0.2764699514056214,18,26,66,76,3
0.00041741288322568804,0.002003603872549975,0.04399539667822017,0.2998326873786691,16,24,62,74,3
0.00034236222084485735,0.0021491083842301415,0.03714615551553334,0.3016837241721613,18,32,64,76,3
0.00034387879980447644,0.0024868969554872997,0.037317519470602176,0.3292070139062708,26,30,65,75,3
0.00034882632915636113,0.0028823639914183,0.0366299294782062,0.3617124423462582,24,30,69,73,3
0.0002744928644780554,0.0025524847652026606,0.03385718904735755,0.34163374729264684,26,28,76,73,3
0.000276175015928853,0.002611896344739378,0.03518625509263135,0.34055066285166746,30,24,76,66,3
0.00027205245497678666,0.0024539205946860947,0.03475057326600561,0.3361217592106097,30,28,75,65,3
0.0002793360661259732,0.003333876448723905,0.03009247687696112,0.3221045806257419,26,14,63,65,3
0.00023760000963755904,0.0030326040239023883,0.023560993663171673,0.2609911633129281,16,14,58,60,3
0.00018375390277577074,0.0025438704848799293,0.01583653805837944,0.18614655585381082,8,6,65,54,3
2.7086641939980517e-05,0.0002871664425779978,0.004327389059168825,0.0316277871871425,24,22,93,65,3
4.402784213943259e-05,0.0004952316450572378,0.006027834081638494,0.05687621056820009,24,14,84,57,3
7.038158958722182e-05,0.0008551168963841808,0.009765932792548497,0.10110789887459792,22,16,74,58,3
0.00012100410953638607,0.0012310651872222756,0.01498941481012725,0.16103963382048234,20,26,68,58,3
0.00020347284948903321,0.0016947201275498349,0.02140403738141891,0.22522244447761175,14,28,64,58,3
0.0002567572568832628,0.0021859108633963727,0.027984135957081487,0.2934277381802413,22,30,66,61,3
0.0002959797782211617,0.002308043080551516,0.03234324896259093,0.32686892696221126,24,28,61,70,3
0.00033383463638188797,0.0025672779685934266,0.03645840518971922,0.35543803663061835,30,32,60,72,3
0.00033893331507077093,0.002396807937963977,0.0387705738497476,0.3596179176154967,28,32,61,76,3
0.00036201792665561846,0.0020722337727213,0.0377788910848956,0.30800543176627543,28,28,62,80,3
0.00034802858415798333,0.0017905951225282285,0.036671879685640285,0.27805383614434703,22,30,61,76,3
0.0003371737102114945,0.0018679114768890054,0.03408520431740467,0.27342676936614924,16,28,64,74,3
0.00033178271510756065,0.001965133775981226,0.03450638455640313,0.2979263665763787,18,34,66,67,3
0.0003464681926129877,0.0019608894059881666,0.03832545705010215,0.30267401285777923,24,34,63,70,3
0.00034548979429127494,0.0019278041088246765,0.03835922971841993,0.30374022975834053,26,32,71,74,3
0.00039431465132590016,0.0020106320330095474,0.043111010646310136,0.3180815274551163,20,34,63,75,3
0.00036188258187666453,0.0020263134521017433,0.042007417064602134,0.28736267092007933,20,28,64,80,3
0.0003702999255082899,0.002143381089449537,0.0399971843369541,0.3144050382778395,18,28,60,75,3
0.00038154369252709733,0.002262411636521087,0.0401023305505805,0.33543304222782366,18,24,61,73,3
0.00034858473041209803,0.0020828759369493546,0.03361068962458182,0.29579891278798554,18,30,63,72,3
0.0003645206685381778,0.002196194579516328,0.03451837964004047,0.32255395748671556,20,32,61,69,3
0.0003258776791734141,0.0020134419301685007,0.029879887922357032,0.2968398784684943,18,36,60,70,3
0.00030055728852667593,0.0019297300881419904,0.03156635412261533,0.274463732281989,18,38,69,69,3
0.00028656884242747355,0.0018936313064845786,0.030116367019975453,0.27999719544300766,18,30,64,66,3
0.000273243675584218,0.0016697647687187744,0.028508439701153732,0.24641804611146673,20,30,79,69,3
0.00025952749273049205,0.0019700615491848273,0.030986624955311175,0.27425479611177106,22,26,74,64,3
0.0002441746838182585,0.0018690081373613284,0.027490383666208935,0.2691754360865167,18,32,66,71,3
0.0002689156604767041,0.0017938688199427052,0.03194846759586654,0.26741481307385917,16,30,66,77,3
0.000250644027648969,0.0015978152091029687,0.028818537382765692,0.2571937803487079,20,30,65,78,3
0.00023410012519484144,0.0014260590184751712,0.027942435699333096,0.2249532416038962,24,38,63,75,3
0.00020655608485358078,0.0015168205122711167,0.027908520563121653,0.23664584393022914,26,28,71,80,3
0.0002074608731412136,0.0014845008955192722,0.025801601586973952,0.21977177262345274,24,30,70,83,3
0.00027118538367530676,0.0016983995032052454,0.028429301157165333,0.2271179078578459,20,32,68,84,3
0.0002920381160404183,0.0016285780270695843,0.030379672905941624,0.2239637499970936,26,30,66,83,3
0.0003992400238735342,0.0018847020637159265,0.033840837864909074,0.24722861126860377,16,30,56,70,3
0.0003928026335468327,0.0018212854063508932,0.03524579176523683,0.2676602001493228,16,32,55,73,3
0.0004844819076558363,0.001985137744454342,0.04293068198198069,0.2842314229711026,16,28,49,69,3
8.626924081462258e-05,2.4872421425791076e-05,0.012979562736777434,0.003919728915723768,22,40,80,87,4
7.968281647756805e-05,2.5382888199649627e-05,0.012086835425305406,0.0039025272306200355,18,40,77,91,4
0.00010118651268861293,2.5241728517666418e-05,0.01469008145497514,0.0039544244439754855,14,36,76,95,4
0.00011228711736637885,2.7997001688340954e-05,0.01608549096536551,0.004406889339507313,18,42,71,93,4
9.504746078336176e-05,2.861936073029044e-05,0.01434259230143067,0.004670026851508572,22,32,78,91,4
0.00012584304794132405,3.2537955380392315e-05,0.018055960434661476,0.004793900893102565,18,31,77,87,4
0.00010447921386135931,3.118064080432236e-05,0.013584862714543138,0.004980053905776574,12,34,81,84,4
0.00011870484151390512,3.239234511092423e-05,0.01563635923668436,0.004538118616240228,22,36,77,88,4
0.00010467058407756543,2.8713802727088323e-05,0.013860714595417755,0.004657568531649773,18,40,77,90,4
9.269918808987915e-05,2.5974200859021075e-05,0.01304865157032745,0.004473718267984732,22,40,76,94,4
0.00011123435342700458,2.5142177784272964e-05,0.014263852635567165,0.004199430152264758,18,42,86,90,4
0.00010652135299991431,2.7565852401080057e-05,0.013585678573009793,0.0041831862559553535,20,40,76,93,4
0.00011792364618114358,2.8825658092590218e-05,0.0152528293141349,0.003875112850206505,22,26,72,95,4
0.0001155119877398965,3.111012663212622e-05,0.013424718278832046,0.003958476400782308,20,22,64,92,4
0.00011870796725950853,3.307407686935217e-05,0.013457387740314932,0.0038769059691912485,18,22,66,90,4
0.00010014808738448343,3.278949842471403e-05,0.011850302146935379,0.003972295918114328,20,26,75,89,4
0.00011880810145412942,2.9923790130884574e-05,0.012424264533295027,0.004018096677274347,22,28,73,91,4
0.00010817970572339192,2.5976130922065405e-05,0.012556622006306712,0.003926546149066244,20,40,75,94,4
0.0002442083075813866,0.00015727755295765917,0.019760466101055998,0.010485078290767327,18,4,72,74,4
0.00029339405809185006,0.005174796109069969,0.02064775725608677,0.29476320508534626,16,4,66,55,4
0.0002898940313844332,0.005509983896599688,0.019194831217503348,0.3025879813066624,10,4,55,60,4
0.00013699650173421541,0.005526347737875347,0.0109727856518374,0.2954700171400029,16,4,68,66,4
0.00010463840348589693,0.00520223217866588,0.00805974665377813,0.2862495873454112,12,3,80,53,4
3.825460678546477e-05,0.0004084782854918068,0.006054287439811263,0.03864383768910833,34,20,99,59,4
3.183821787614195e-05,0.0002971280267195554,0.004896814071227156,0.030040868762946024,30,20,105,65,4
3.318615903740485e-05,0.0003375010313967396,0.005462012489486671,0.03638786479281412,26,20,105,64,4
2.8250110272294177e-05,0.0003575027930987342,0.0047291833688377655,0.02902036942191813,36,14,99,61,4
2.869739297745843e-05,0.00032561222527616445,0.0046424258275213565,0.0303453074173335,32,18,91,60,4
2.6465323322037822e-05,0.00032192919446062966,0.004543391599913572,0.03309469886248663,36,18,86,55,4
2.137564069131676e-05,0.00022132096501500847,0.0036530158036383207,0.024504377931638153,40,24,88,57,4
2.6602598825900308e-05,0.0002539550300994679,0.004193716777607541,0.029173310786883042,31,22,91,67,4
2.293923397281271e-05,0.00022908942314440377,0.0038445462379794577,0.02426487426524851,28,20,99,60,4
2.7969051683451033e-05,0.00021242638458627945,0.004114692344058951,0.023157533281361397,30,18,94,60,4
2.906302929617121e-05,0.0002203238538769618,0.004344027960773538,0.025283082199002507,32,16,93,63,4
2.7980625621305124e-05,0.0002188890751858363,0.004232014751156088,0.02463772902110081,36,18,88,67,4
2.8400761549539466e-05,0.00024387708934497514,0.004184171324851476,0.027489023557952158,26,20,88,67,4
2.7494489510791607e-05,0.00022831499144027062,0.004296200403335027,0.02505139264961816,34,16,97,73,4
3.1068562037492896e-05,0.00020602335655578466,0.004571531756804657,0.02450670756176836,32,26,95,72,4
2.6882473969723862e-05,0.00016651125581795356,0.004328992882480387,0.021356607860085634,34,30,98,68,4
2.5678430183637322e-05,0.00016706133003115505,0.004287668458924606,0.021647114425494305,34,24,98,64,4
2.6511340895024575e-05,0.00017231492951454906,0.004359237836145703,0.023405815682293184,24,22,95,68,4
2.4159748351388277e-05,0.00018346930779961613,0.0041722595584671954,0.022383165804245143,26,16,99,69,4
2.535142440092218e-05,0.00020539507935603274,0.004303189206097728,0.02389748964976194,32,16,103,57,4
2.57567710883985e-05,0.00018098037976454985,0.0042225785266796715,0.02365299844943251,34,26,98,72,4
2.519581209172029e-05,0.00019399095651853555,0.004436042073266669,0.024623136657306387,32,20,99,73,4
2.494083055639348e-05,0.00020553907057243055,0.00409023624212504,0.02349797439469864,42,18,102,60,4
2.322219202113899e-05,0.00021279657931814474,0.003792732074526171,0.02316776895067758,36,20,101,60,4
2.3363031293879122e-05,0.0001896054260838205,0.003922699560334863,0.021563102988360037,32,20,101,63,4
2.1870601402223373e-05,0.0001644810119354143,0.003652595428966204,0.019018013018669958,36,24,96,72,4
0.0007479820403275326,0.0014532370926633412,0.0720146458985716,0.14616313612251972,36,35,66,58,0
0.000535420522962717,0.001204787720619285,0.0654514648953387,0.13452226646415977,32,6,67,66,0
0.0007817718430591881,0.0012503714937422239,0.06752232757433398,0.13233008806453303,28,12,63,67,0
0.0006556512521311187,0.0010370695962400565,0.058336730410747197,0.12015783960066644,10,9,69,67,0
0.0005842684972671281,0.0011079260769019618,0.05434702177236747,0.12018538580181103,18,10,72,60,0
0.0005342518039205827,0.0011392958883840137,0.04657982735813212,0.1228301219056483,22,22,74,59,0
0.00027487261712817593,0.0009552572956527941,0.040186015362315475,0.11248226756261236,22,24,75,62,0
0.00027935296718909896,0.0009026140256882698,0.041829885204271354,0.10430952253273955,24,24,75,67,0
0.00029484229118121057,0.0008501381104720605,0.042620932001331414,0.09657646744833548,20,24,68,68,0
0.00033054629112051553,0.0006847340614278771,0.04496619761281245,0.08633948244851061,22,20,65,74,0
0.0003357829209033186,0.0007352043623017921,0.0458677008142121,0.07927790735386893,32,20,62,72,0
0.0002967443638127177,0.0007354637702635783,0.04004373632826452,0.08425152183501383,24,18,63,66,0
0.00034529345904997364,0.0007192495406669921,0.041423991971123876,0.08606043723141125,24,26,70,70,0
0.00030862640882027196,0.0007521443664258477,0.04184768827896257,0.08731878350327234,18,24,72,71,0
0.0003640754909839705,0.0008525218662687441,0.048490943283070354,0.10032012133642536,26,20,70,72,0
0.00037718615000938843,0.0008777928962968276,0.05150630774019927,0.10178690943577721,30,22,72,75,0
0.00038240650382984813,0.0008500888915855547,0.053764307436348246,0.0975537725357699,30,20,67,69,0
0.0003748659151961862,0.0008394664085160781,0.052458810583279725,0.10121470732478607,30,20,69,71,0
0.0003322360983444589,0.0007280056756789106,0.047300315700727284,0.09122051823102392,34,26,72,69,0
0.00029365932605253164,0.0006892742145344186,0.04696937875016699,0.09028784731431144,30,34,75,70,0
0.000289953391437524,0.0006405750697074054,0.04321223592171677,0.08629416422565209,30,32,76,72,0
0.0002881640277005086,0.0006217419643429539,0.04441962351243452,0.08414626934762842,28,22,74,71,0
0.0002310833769968439,0.0006802357120938,0.037824349716678404,0.08694019784753733,24,18,74,65,0
0.0002561366083873537,0.0006209506199572298,0.03903526641661074,0.07878144540915918,32,18,73,59,0
0.0009506983598789831,0.0008870356634008307,0.1332282036424195,0.12294720503521718,32,18,62,63,1
0.0009446100742320735,0.0009588407761942552,0.13130638068596384,0.1310475812064337,30,12,60,61,1
0.000985495256244551,0.0009208679405118111,0.1295320912173789,0.12514462468282578,30,14,59,64,1
0.0007005841712475136,0.0008263772293437635,0.09271911780221519,0.10940108381396585,34,16,67,61,1
0.0006806503931534178,0.0008591169585212611,0.09338556544584097,0.11795481778600161,36,16,75,66,1
0.0006890781358903677,0.0008795975010686796,0.0909755976168993,0.11147162454299499,36,14,72,68,1
0.0005224918161924688,0.0008010902702095684,0.08367327555448802,0.1014050922518591,16,25,80,66,1
0.0005467672683416246,0.0007726459117988181,0.08810662359263496,0.10120607866052518,8,16,82,65,1
0.0005442055601194182,0.0007715709256313827,0.08652653359197214,0.10496420334456756,14,18,69,61,1
0.0006013514157916204,0.000722023928955827,0.08687551739050364,0.10300458563791413,20,22,73,65,1
0.000623513021792538,0.0007363213162314366,0.08694686519585273,0.10770144542589659,22,28,71,64,1
0.0007115162509060294,0.0007570768652594412,0.09175450765802373,0.1047366595834509,26,26,71,66,1
0.0007059687444128738,0.0007057308141159728,0.08652162734099902,0.09632613484184042,26,26,77,71,1
0.0006374722493403357,0.000661470849416389,0.08712184217234678,0.08910654414088756,24,28,77,75,1
0.0006517195158312066,0.0005982842544116847,0.09160014177414776,0.0794381559747268,24,24,81,71,1
0.0006053071788169384,0.0007185817216951746,0.08880175271471767,0.09089809150560024,22,26,81,76,1
0.0006113849941196771,0.0007189153543584484,0.08943971545341405,0.09498801965175283,22,24,82,72,1
0.0006148625129603487,0.0007781446826631259,0.09018200116644877,0.09955206139522602,28,22,75,65,1
0.0006645425562602588,0.0007779138711423284,0.0931954129624646,0.10258018725353442,26,26,75,63,1
0.0007407160480098436,0.0008174114820707716,0.10276474873681797,0.1091895863081916,30,22,67,70,1
0.0008971032175229772,0.0007368543018419036,0.11710497638013108,0.09972401740148668,34,24,73,69,1
0.0007772294021036944,0.0007926934558470599,0.114562282908699,0.10231584746400246,28,28,73,76,1
0.0008058927134802205,0.0007921516468669932,0.11708689047674448,0.10308741932524747,24,30,72,70,1
0.0007184321278594707,0.0006657948315941253,0.10148670666853639,0.08670526040001357,22,30,72,69,1
0.0011132893344797789,0.00027674747998645,0.16695153287825143,0.048233298840079916,22,12,76,88,2
0.001003434283198972,0.00028208978541831206,0.15937385700362655,0.04967928185306486,24,10,79,79,2
0.001004424266307861,0.00027626042718871833,0.1481134264636183,0.04738738397800459,30,12,80,79,2
0.0007658565531886118,0.00024963380258350207,0.13576487897381945,0.043577699885763925,22,12,91,85,2
0.0007624575224315158,0.00024891347274343003,0.1298646500273872,0.04288730713532214,24,22,91,81,2
0.0007468888985409533,0.00021739050858229493,0.1234944979727405,0.04260570347138468,18,28,81,89,2
0.0007781915541048703,0.0002259536666485843,0.13364954633107354,0.04201713592843917,20,28,78,86,2
0.000830354152441684,0.00024041142570448672,0.1427938220624727,0.04220554328198197,38,32,78,87,2
0.0008014345915523228,0.0002423114905007141,0.1344577763753173,0.04042850622927884,42,40,76,84,2
0.0008561040934110857,0.00022988494805881236,0.14462391393486076,0.03962058990007025,40,38,82,85,2
0.0008026748062261574,0.00022542104029252635,0.13418143933683724,0.038092943225387435,36,40,85,83,2
0.0008300627338555075,0.00020117293414678781,0.13419383253975964,0.03692216346265805,36,38,83,83,2
0.0008292617893593763,0.00021118680477268386,0.12829219390722776,0.03714961078953997,32,46,76,87,2
0.0007373671977704056,0.00021787298152770986,0.11060776100669704,0.03560196536643933,36,46,71,81,2
0.0007675540159126751,0.0002141086594203848,0.11415017851675588,0.03439561119192011,30,42,72,84,2
0.0006461394142837755,0.00023445988081118095,0.09882153122724148,0.03380137326712368,30,44,77,82,2
0.0006547418708942881,0.0002128346158097339,0.10585812575135999,0.032628628327148114,36,38,80,75,2
0.0006309586356683159,0.00019880406874192867,0.10638459626763108,0.03178450038349639,38,44,82,79,2
0.0006191622663621331,0.00019979809820412837,0.0976938827874999,0.034125893348600785,36,40,82,78,2
0.0005842204437117394,0.00018073929215056954,0.09907369216845509,0.03156533789002245,38,44,81,84,2
0.0005122398938464376,0.00018712832819695272,0.08749155314903613,0.03393476738059903,36,38,83,79,2
0.0005271782629912275,0.0001911743708333721,0.0941505493755256,0.033094517726775526,36,40,81,82,2
0.0005679867321815812,0.0001925416117426331,0.09583331840658346,0.031188501118383807,36,38,75,86,2
0.0006010954478871521,0.0002212642294148101,0.09940580474998015,0.03366238246340742,34,34,81,85,2
0.0003081828807428238,0.002292941811535398,0.03672668648972148,0.34140879246424793,18,14,72,76,3
0.00023882279838277536,0.0020117487861842955,0.03164408034872971,0.31141826358668423,9,20,72,79,3
0.0003238847647942893,0.0017583326503846075,0.03291613537080622,0.29370749677221475,10,20,65,79,3
0.00034298326569643246,0.0018050053283256455,0.036903544123645146,0.290336798011368,18,18,58,73,3
0.0003273093920052726,0.0017047599222216952,0.032682178169119135,0.27126778751976255,16,16,62,75,3
0.0003676846479438008,0.0021513746042120265,0.038204543757366996,0.31399629840705523,18,20,55,76,3
0.0003872653552611669,0.002300403446580602,0.04120883416901392,0.3134945277091405,24,22,56,75,3
0.00039312255688420084,0.0025822441939696308,0.03922582873823068,0.3542972950073665,24,26,56,71,3
0.0003820641360192736,0.0025849703646766485,0.04199217245199686,0.3583127887597126,28,32,60,71,3
0.0003391922814768374,0.002481319783238007,0.039977860207164234,0.3583944943147806,27,30,67,69,3
0.0003220709785916397,0.002326724501091522,0.03764077162668564,0.34327404010289053,24,26,62,74,3
0.00025839696299487973,0.001996523713770672,0.03625588338719859,0.31203088599762246,24,30,60,73,3
0.00023976491933309522,0.002047391704914822,0.034758649265313926,0.3189665971104539,24,32,66,81,3
0.0003230459088990456,0.0022192171168600116,0.037258607162447076,0.32410554213278275,28,34,60,74,3
0.0003725961073725608,0.0021521318389417445,0.04083455330121029,0.32342774228072607,22,32,63,68,3
0.00037908339184771975,0.0023116452835152787,0.04057754519755977,0.3455392133627443,24,32,62,66,3
0.00035858209031211475,0.002071987834097629,0.0397777845452068,0.32914771863137415,28,30,69,66,3
0.00030068096655659046,0.0019752597637497393,0.035961295886397904,0.27579584370199767,22,32,71,71,3
0.0003087480641020759,0.002048507228539448,0.03439128140387523,0.2943394832692689,24,30,71,68,3
0.0002990345583971804,0.0019997198357772257,0.03366515025813497,0.27768108227617727,22,34,71,66,3
0.0002835151620531613,0.0019115126827142555,0.03524152807376565,0.2937487262119879,18,28,72,64,3
0.0003601306056321819,0.0021793266022750047,0.039614757815505296,0.33521976344072313,20,34,63,66,3
0.0003607844796947776,0.002004214752815908,0.03747585373269518,0.3218161042099365,16,42,68,70,3
0.0004212502972816293,0.002068108138499991,0.045263776540465595,0.33058005678960267,18,32,66,71,3
2.470461933638977e-05,0.00015691253070369057,0.0032416655344725764,0.01744086386825098,12,16,87,65,4
2.2695650070651442e-05,0.0001974757807803531,0.0034846625110665328,0.02249533035724998,10,8,92,61,4
1.92350603878204e-05,0.00018445728905709088,0.0032654105002521377,0.02093957552101318,10,10,98,68,4
1.8905258293895955e-05,0.00023971332221158658,0.003175660480538105,0.020959195926093504,30,8,97,52,4
1.774016169690374e-05,0.0001860236187779478,0.003062890939500983,0.018689996419622323,22,14,98,73,4
1.8403768308266976e-05,0.0001927558567013032,0.002989589374950613,0.018195020622386798,24,10,98,71,4
2.071409652109257e-05,0.00017962087319161053,0.0032216806544908888,0.02008905172445102,22,12,91,77,4
2.1861292520878166e-05,0.00018246095364729407,0.0033333279929384325,0.018851958321979546,22,16,93,71,4
2.302583745026831e-05,0.00019377270509054803,0.0034625296614708904,0.023076466917719418,24,18,99,70,4
2.068770721563434e-05,0.00016356896358567108,0.003250988324911919,0.018946246012456407,20,22,104,62,4
5.735733359993347e-05,0.00022029616211516857,0.004920434690671296,0.023035425679208934,26,16,91,73,4
7.190157603456609e-05,0.0002560769781110828,0.006234757297057962,0.025400719394758235,32,18,79,73,4
0.00016344143220388567,0.00031570819626391337,0.011213118197347754,0.02644857614089073,24,26,82,66,4
0.00017364119859309045,0.00028677282565751043,0.012401119947212332,0.02427372502020715,34,16,76,74,4
0.00014873918144944352,0.0002028869229255575,0.011574580999270955,0.015280731736590275,36,18,82,82,4
7.038979090905603e-05,5.003268361543323e-05,0.008362415383132194,0.005946263042536696,38,22,85,96,4
6.455443694453912e-05,4.2025484020802955e-05,0.008637944443973413,0.005724749778420436,38,18,78,100,4
5.7693080095993455e-05,3.753446437428827e-05,0.007950580384827762,0.005497359846856683,38,24,84,94,4
6.748058184712218e-05,3.3723615637011024e-05,0.010299106650251043,0.005189637677613313,38,14,81,94,4
6.19082831608286e-05,3.125207379779864e-05,0.00912070428221873,0.005113775442889779,44,25,88,88,4
7.694376007336815e-05,2.98685863241876e-05,0.010484811191558197,0.005211355833810433,42,24,82,82,4
8.983854493649093e-05,2.8094928492991265e-05,0.011779439516729455,0.004714821420812175,34,27,77,88,4
8.909560623422113e-05,2.7099132243754046e-05,0.011703411561578793,0.004618785099179428,36,30,79,86,4
8.880068373947108e-05,2.378263896791962e-05,0.011532917406011966,0.004140692719479321,44,32,78,84,4
