f1ch1,f1ch2,f2ch1,f2ch2,f3ch1,f3ch2,f4ch1,f4ch2,Category
6.362305159337716e-05,0.00035519281782579363,0.007244431329771181,0.03379025250356798,18,18,76,54,0
7.528925906898297e-05,0.0004657708088727702,0.008471457993946595,0.04164342162716352,18,18,74,56,0
9.256510553496445e-05,0.000494101166182536,0.009608109821879974,0.042666841202939086,20,16,74,56,0
0.00017048323826090818,0.0006526342358554577,0.01813426282379205,0.06404721101674718,16,18,66,66,0
0.00032469575489401064,0.000879178207634822,0.030684592266871657,0.08810157453921742,13,18,59,60,0
0.0005593948355581159,0.0010900642210989794,0.047508041455982745,0.10516035617131674,18,18,59,62,0
0.0006349421865812991,0.0013061460799763122,0.057045363201827674,0.13395249532986858,22,16,60,58,0
0.0007728731420751149,0.0013671239334208274,0.06787044658088066,0.14729600624539532,22,22,66,60,0
0.0008638597244495812,0.001471291918340095,0.07688525383102894,0.15287777752098988,24,20,68,58,0
0.0008777170293580199,0.0014510714645530262,0.08226417537906039,0.17200270866312883,22,22,69,61,0
0.0009047884991499214,0.0013180841629311575,0.09070688343119346,0.15911108849373734,34,26,64,68,0
0.0008084401872177313,0.0012258767790067385,0.08186621485919662,0.1500827503828034,28,26,59,70,0
0.0006443943970682132,0.0012605024068058155,0.07395004194437636,0.15076949612474427,32,26,59,69,0
0.0005649624568520521,0.0012951600793397321,0.06528197702950199,0.15458651584274788,26,24,61,64,0
0.0005419660665430671,0.001324607250489617,0.0654062207480411,0.15574677999287334,24,22,57,59,0
0.0004821431419724438,0.0012090046776468701,0.06449340413486121,0.1517109744504832,26,22,61,59,0
0.0005703346453171409,0.0010175599331603744,0.0710669203410627,0.1404513799950031,28,26,65,64,0
0.0006124219876566967,0.001096205068895813,0.07484969157746156,0.12723495776272004,26,20,62,65,0
0.0006406899050901152,0.0013911481812911863,0.07126970674507269,0.12948864116201228,22,16,66,60,0
0.0007290882161153204,0.0017758255463471936,0.08595160117425868,0.15140679877197158,24,18,70,52,0
0.0006500902284543968,0.0018332249049136517,0.07584732311827536,0.1569094333847615,28,20,64,46,0
0.0007018128062929795,0.00170358535723897,0.07881597663877687,0.15474538522161604,28,20,64,49,0
0.0006883655104714525,0.0017057235946667298,0.08108534252834738,0.163692774251181,26,20,67,48,0
0.0005732496257785766,0.0014994171109678738,0.06957591802133323,0.15626698388248308,28,20,64,58,0
0.0006003940854233998,0.0014135051619021575,0.07225365689010027,0.1638570338589385,28,22,68,61,0
0.0005572950491094357,0.0015686465861047389,0.06973454331183448,0.176725257177109,30,22,65,57,0
0.000558542378655569,0.0017577317615185513,0.06770426602519733,0.1892423375180474,26,24,66,61,0
0.0005362769406254938,0.0017232008109052568,0.07045136442106073,0.18574928519705908,26,22,73,64,0
0.0005789254772969686,0.0018233545681369107,0.07803097390960713,0.18417065069203278,26,20,75,57,0
0.000612987040789192,0.0020176860576590822,0.07888170769655446,0.2040052410568085,22,20,73,56,0
0.0006571578560927801,0.0017874419218092484,0.07735271184202527,0.19879579737524117,20,24,71,51,0
0.0006006888827219966,0.0017695774117825025,0.07809257738914097,0.20215432244413184,22,24,68,55,0
0.0005769011271643598,0.0015491564644952158,0.07376297997275542,0.1896304519794634,28,22,69,65,0
0.0005709277973504034,0.001430686578123155,0.07161948203833093,0.18778335945099586,32,34,66,61,0
0.0005807547653888115,0.0014621620598866411,0.07231905864167176,0.1876164313855211,36,32,63,63,0
0.0005628160752207598,0.0016820858294548096,0.07649570874568015,0.1984953390672878,32,24,68,63,0
0.0006131871260662623,0.0020261744034062875,0.08005202664249288,0.2333074914745387,26,28,69,56,0
0.0006673250044780492,0.0018559747940154684,0.07966694236427044,0.21939662764219797,20,24,72,62,0
0.0007308154221033331,0.0018769344600004549,0.08886859325663722,0.21161121020434576,22,24,77,63,0
0.0007938579959851129,0.0018484821676576805,0.08386225483845254,0.19183968776262625,28,14,75,60,0
0.0006873560461970865,0.0015947221095071564,0.07270434049750218,0.1547994707563805,24,16,76,62,0
0.0005735177788161543,0.0016530059261013006,0.06600087584336875,0.1437855429577273,26,14,79,57,0
0.0003773820268018338,0.0014141663499179077,0.046999356784371796,0.12654638968609966,32,18,78,57,0
0.0004017678138416389,0.0015022894149324976,0.05185217949473174,0.14097515941983021,30,20,68,63,0
0.00048537714422054664,0.001517483487227343,0.05786049354407734,0.1622300842026937,22,24,64,64,0
0.0004905017881954506,0.0014630555379601387,0.06083892527664641,0.16565026791108795,18,24,61,64,0
0.0005434494388222883,0.0016216163365227654,0.06908964864047075,0.1790132021955144,22,22,60,66,0
0.0004970663261055957,0.0014647040936215895,0.0660205344214989,0.17261394438998198,26,28,67,67,0
8.601291166779481e-05,0.00038443785647471467,0.00952692769225479,0.04482378617131231,18,20,81,57,1
0.0002579869696345959,0.000514992211123532,0.03165439402815698,0.056333803922310424,12,24,66,53,1
0.0004703322062361463,0.0006713257966019971,0.054012577089658766,0.07164863106144874,20,22,57,58,1
0.0008523768023356536,0.001016428133180955,0.0929001389215153,0.10675825017956331,22,20,48,57,1
0.0010220238477228242,0.001068390258726368,0.11514973715407124,0.11456767848121065,22,22,55,54,1
0.0011718930397484363,0.001226603209471894,0.1273907849288434,0.13779004560769678,18,24,55,55,1
0.0011618288008336782,0.0011171264095442273,0.13686324027537547,0.14204326711187593,20,26,54,65,1
0.0010000326677138364,0.0008778833965739638,0.11626220435600002,0.12008985019848266,22,34,56,65,1
0.0009786698860625971,0.0009567250977238052,0.11411612268138022,0.13366687337452865,22,28,56,72,1
0.0007966403960024799,0.0008072534657900497,0.09603322136117896,0.11710178941112058,26,30,68,65,1
0.000764967212372326,0.0008464341023040684,0.08541182647127496,0.11287261709810661,24,20,66,67,1
0.0007334384828309791,0.000834060609177004,0.08819988735516145,0.1073511862464899,24,20,58,67,1
0.0006976096770063749,0.0007728296013414915,0.08501803015326183,0.09104534495260967,26,16,58,69,1
0.0006733016087686368,0.0007314237300071998,0.0833777605082612,0.09753141594009418,24,26,56,69,1
0.0006605955933962701,0.0007810912288335143,0.07868201194769668,0.09963710692704099,22,22,60,77,1
0.0007364606672763194,0.0007281979785758567,0.08107059429324254,0.09768545897673461,22,28,66,74,1
0.0006410665047768255,0.0007238556515451676,0.07484990027880709,0.09817560103342922,18,30,65,67,1
0.0007832247199181196,0.000671273334925972,0.09178434731176455,0.08768515730887663,24,32,65,62,1
0.0008533916768230109,0.0005730300205006429,0.09995602862215622,0.08360618779821904,28,36,64,65,1
0.0009285968912676355,0.0005258475939086073,0.10786665396964648,0.08120578824458581,28,40,60,68,1
0.00088845857373877,0.0005457799879970104,0.11299515334728807,0.08454630721036406,30,34,66,66,1
0.0008958379045672558,0.0005555343725943568,0.10936909470611313,0.08895132717801928,22,28,67,72,1
0.0008098077054191911,0.0006087651980274289,0.1081093388674188,0.09113448582378508,22,26,69,72,1
0.0006330367423400075,0.0007311108938114117,0.09149810822663168,0.1053462291482465,20,34,76,67,1
0.00076592259883373,0.0007582393356816506,0.10284172848867278,0.10322050541790442,24,30,68,66,1
0.0007072907371865994,0.0007813242861979734,0.0943542131166402,0.10644075578685948,24,30,68,70,1
0.0006709217024910345,0.000734212574732314,0.09030253964724039,0.10322706188503387,32,30,66,69,1
0.0006355916472463703,0.0007101608199519689,0.09237633744112546,0.0993385919292175,30,36,66,71,1
0.0005413036918177365,0.0006009274069495616,0.07720793995514978,0.0908190792550289,26,36,69,74,1
0.0005636509716185221,0.0006504361939793788,0.07757911539676364,0.08836604625957323,26,28,69,72,1
0.0005440468166463423,0.0005541604303356086,0.07477123595267593,0.084029597894429,26,26,63,66,1
0.000547527791880627,0.0005422613472211912,0.07435909921972286,0.0816081039305307,24,28,63,61,1
0.0005810693297330922,0.0005911055930125675,0.07968277603501422,0.08842622863803808,26,32,59,64,1
0.0006192007594112384,0.0005599319214821723,0.08038304483290185,0.08043278036740836,28,30,52,67,1
0.0005340578020107982,0.0006488259459269317,0.07063794398330173,0.09427041489442496,28,30,58,76,1
0.0005848788798471832,0.0006373029538901962,0.07420518766786556,0.09096795661425225,26,30,58,83,1
0.0006438941723097513,0.0006423489838781935,0.07669383648043863,0.09046655787271557,22,30,53,79,1
0.0005919748242338381,0.0006010396525305125,0.07457853563976014,0.09217492883157316,24,26,65,66,1
0.0006318302583687773,0.0006216248246084335,0.0795343164116482,0.09452784153990747,24,28,60,64,1
0.0013752190669364484,0.0007507123376367441,0.10227801611181646,0.09806704554355937,12,28,68,65,1
0.0013422625162906364,0.0007759943383920506,0.0935987912253766,0.09394900417743113,8,26,62,65,1
0.0014270427405594234,0.0007924752372690212,0.09988883721554978,0.10063590136517599,10,30,54,65,1
0.0006377219438999064,0.0007411358962603055,0.06719860238328139,0.08519797063756021,16,22,52,65,1
0.0008316240698414855,0.0009108066288305473,0.0894792536658485,0.0984997891105762,24,28,51,60,1
0.0007703147063741429,0.0009180545381205074,0.08751128338190342,0.10000446881438596,28,22,55,66,1
0.0009020914642144329,0.0010144941228361097,0.09383306175984796,0.11202827959868449,20,24,50,65,1
0.000754705739123473,0.0010115428846900407,0.09035408914803193,0.13357413850421584,18,26,56,63,1
0.0008033741360582132,0.0009515105952935635,0.09159448497007787,0.1425236100917816,24,28,56,67,1
0.00012381438794074626,0.00029766492963630457,0.014279750584650319,0.030995407221727955,18,16,67,54,2
0.00017194495842469862,0.0003255246115642716,0.02047843322485473,0.030621072633569064,26,14,59,50,2
0.00033330717900319397,0.0003061205715427569,0.03486477951096418,0.029478586916278637,14,18,58,55,2
0.00043347736163432354,0.00036395546058935106,0.05096246046586979,0.03443927564653924,18,22,63,56,2
0.0006234984545346713,0.0003582087273606411,0.07479771831323613,0.03761464637097201,26,20,69,61,2
0.0007535451051653411,0.0003605352010241739,0.0965497314902929,0.03992040577791547,28,14,69,64,2
0.000724530918660728,0.00044611247416041284,0.09778536320202387,0.04456444802653321,24,20,68,63,2
0.000807182948780617,0.0004573603707434689,0.09931600789645982,0.05372989546362342,26,16,71,57,2
0.0008000097742207743,0.00044003645200834974,0.09783324648986123,0.05402078654136944,22,18,72,60,2
0.0008193724687680367,0.0003852414155895025,0.09672112438905775,0.05411781596543706,22,24,75,65,2
0.0009604321557416503,0.00046709029831207185,0.1100134756692704,0.059096489414661835,22,28,72,62,2
0.0008864447728779236,0.0005812622618281393,0.11433682387160825,0.060472899455589466,24,16,72,62,2
0.0008449468427887865,0.0005835161612822541,0.10730270605378027,0.05915648854656235,22,18,71,65,2
0.000895069305411859,0.0005706878087251297,0.10592940279736697,0.05761060931368101,20,18,72,65,2
0.0008592201303157773,0.0004871632118163549,0.10707788151391272,0.0533810683682444,18,20,72,72,2
0.0008452301542097738,0.0003262951033389954,0.10481490834385557,0.04594653319024947,20,28,72,81,2
0.0008056347398575155,0.00030149387480755117,0.1087594646183055,0.04604733802066103,26,38,68,82,2
0.000677511784717253,0.00028555243763712945,0.1042410919463443,0.041682524120910086,34,34,62,89,2
0.0006180178758523543,0.00026778800602478037,0.09522983179704567,0.03955842803737132,42,40,66,93,2
0.000627139716510143,0.00024456837412099196,0.09856714816647034,0.04110522918505981,42,40,71,92,2
0.0007200761416354602,0.000244380034970169,0.09904353811036766,0.03897022979171061,38,34,74,94,2
0.00069237923877212,0.00023533915585434784,0.09510168552420512,0.0356836430637563,30,32,77,84,2
0.000676924970824597,0.0002532156960316305,0.08801850703930632,0.03963433458497817,30,34,76,81,2
0.0006073548378353491,0.00024029078310754785,0.083546885672343,0.036608352368425544,30,38,75,72,2
0.0005060981091483316,0.00022652192668074964,0.0785315405602482,0.035092720097051104,34,38,75,69,2
0.0005329496129015451,0.00022525710390804978,0.07847922663480496,0.034947551934099395,32,32,77,76,2
0.0005453387323126857,0.00018860848261879394,0.0881575114825865,0.030777268560218392,34,34,79,89,2
0.0005619354184517218,0.0001772354688488182,0.08496431930738806,0.028872894338059778,30,40,85,93,2
0.0005411100190043841,0.0001903615988538012,0.08244551719752352,0.028836681713108502,30,38,78,93,2
0.0005302228461300895,0.00016823760872430437,0.08207404028373289,0.02765991872621644,32,38,86,91,2
0.0004986938532153815,0.00018320006212763939,0.080218250280315,0.026882906834180362,34,34,76,91,2
0.000583631371037008,0.0001767352048804392,0.09111704817766197,0.026618258673542942,30,40,73,88,2
0.000609623652090462,0.00017476859799103552,0.09716465324609774,0.02535152272490028,32,34,73,92,2
0.000638655089898248,0.0001953858197672373,0.10150054981582844,0.027552671544729113,30,38,68,88,2
0.0006002617235873797,0.00018358050000456501,0.10037856215010063,0.028228008736583553,36,44,75,84,2
0.0005418800818027472,0.00018865030685219036,0.09427471497171097,0.027492694924000687,34,38,76,84,2
0.0005661464472482898,0.00017787964720458857,0.10361437719159951,0.029518256582691547,32,40,77,82,2
0.000595498951439443,0.0001720344968097546,0.10368492141916005,0.029418950142836495,32,44,75,85,2
0.000584196867843843,0.00018301346232065354,0.10344732247339378,0.03208859153755071,32,42,77,84,2
0.0005219166410314667,0.00020810635710484968,0.08474132451559388,0.03119385365008308,22,30,72,82,2
0.00037653793722465924,0.00023162736932875634,0.054355655243128166,0.02852547299051802,18,20,73,74,2
0.00023203387341702922,0.0002802158624562043,0.02993487781058757,0.030865349137571003,10,20,70,65,2
6.6871094224259e-05,0.0003080095674371986,0.006810925921005442,0.0307203620505944,26,18,74,54,2
0.00011366723852404781,0.00031877395246924264,0.010625456699427006,0.03416406173403849,14,18,75,58,2
0.00018959878867566354,0.00029654978797343434,0.022109886384314683,0.03238916423057318,24,20,66,58,2
0.000249344023869298,0.00027230607126547246,0.029111775288089625,0.026991689095576477,20,20,64,59,2
0.00028929314559534376,0.0002687615608300365,0.03375739835238995,0.025988249037667544,28,20,56,57,2
0.0003589003267364995,0.0002605631566121552,0.0415012020872172,0.02401709410677077,24,26,57,54,2
0.00020821415731664343,0.0011061434225943102,0.017310155572772233,0.1194139089206981,12,22,63,57,3
0.0003013165676089765,0.002002924382250623,0.027162768744684134,0.20932822936796283,14,20,53,55,3
0.0003979309807891622,0.0027136987579173904,0.03438037856322355,0.30492617050532944,18,16,47,51,3
0.00044361343923453507,0.0029280525554693224,0.04227720690969218,0.3500197697859723,22,22,42,61,3
0.00046605591532915963,0.003057489096736397,0.04674930509621242,0.4144286031671756,24,24,52,65,3
0.00042784283802695556,0.0029440736965246034,0.045524607127831004,0.42081951933528344,22,26,58,75,3
0.0004553499375158707,0.002657267341534212,0.046190065325726296,0.37921130458517777,20,26,61,76,3
0.0004118974388071412,0.0023285415786948984,0.040964778607280566,0.3631713347299235,22,28,66,72,3
0.00037278132185626027,0.0021916488609747377,0.03802394448778446,0.34492140385983794,20,30,59,82,3
0.0003761793697089922,0.0020617796079545232,0.03647378436870635,0.3350530262702571,20,32,64,81,3
0.0003606262353944844,0.0023069422707996346,0.036829614232669505,0.37735560126320744,16,32,69,76,3
0.00039327386650422945,0.0023477278727419538,0.04138027725429099,0.37539296296656066,20,30,61,80,3
0.00033202378941101467,0.0023361662486415377,0.038894535834730376,0.3470689684047613,26,36,63,77,3
0.0003681575287067087,0.002489127060691465,0.041850068673288776,0.34982734275255184,30,34,61,78,3
0.0004457887824101591,0.002356367836401598,0.04618507960248224,0.33507249885102375,20,30,67,76,3
0.00039176864003834076,0.002547310352737051,0.04201479095005698,0.3727892246760184,22,32,75,70,3
0.00041995447165883476,0.002574914668825637,0.042650645014584626,0.4029022371134329,24,34,64,71,3
0.0003880008797883988,0.002391347815087694,0.038628899346759185,0.36624754844645047,24,38,61,74,3
0.0002915919829546878,0.0022481901628802394,0.032752951502291065,0.35209998591697267,28,38,64,76,3
0.00027554877834979897,0.0021219343082611833,0.031932002209994995,0.32602510939775425,28,34,72,76,3
0.0002606456668423299,0.0018598130442570434,0.032844455741733045,0.3114991782470645,28,34,77,72,3
0.00034928890316951564,0.0019595877882825326,0.03869247065655707,0.3326239014460826,24,36,68,71,3
0.000389194655335571,0.001961582373080613,0.04035581484492203,0.3223273020530045,22,32,65,74,3
0.0003903213535161182,0.001975079171085599,0.03913071276037264,0.32023547899282756,18,32,61,74,3
0.0003884459037106321,0.001854136932399557,0.03860337590326344,0.3063044892127498,16,34,58,75,3
0.0003183929545810085,0.001607753107826496,0.03462094995087491,0.29423933689634546,18,38,68,76,3
0.000270951601993288,0.001691471735954323,0.031017557727881184,0.28648495724579126,22,34,66,69,3
0.00027252980516118965,0.0015913146777138223,0.03338694528737249,0.2674559295833923,26,38,63,69,3
0.0002497347501009281,0.0017439279842715789,0.03425095210194038,0.28378706082551314,36,40,60,73,3
0.0002539170388423937,0.0021819586615801855,0.03480490791020451,0.3154394993270555,30,32,59,67,3
0.00027780814093093906,0.0021214175476238274,0.03760625558048002,0.33181362578795814,34,32,64,79,3
0.00029342563133176154,0.0023852302990756357,0.039787406316914284,0.36364500551809736,34,36,61,76,3
0.00032342360431181243,0.0025631338209318078,0.041930797287335966,0.3685380199270447,32,28,60,76,3
0.0003414874060513825,0.002405445307453667,0.044454769842422345,0.3485872906583619,32,26,55,75,3
0.0003470658687557987,0.002591179448045409,0.04550354282720324,0.34932228067709725,30,30,55,67,3
0.00041197172139949577,0.0023728598470686767,0.04336689900937164,0.3591247651255378,24,36,54,68,3
0.0003866993815685145,0.0024344664468813173,0.04211048892516778,0.3952352360974437,20,38,57,67,3
0.0003923627689057097,0.0023737784520174963,0.041093726158432424,0.38962217630107826,14,38,62,67,3
0.0003948390520280205,0.0023482139905495105,0.04204349890265799,0.3904042810096637,16,32,64,70,3
0.0004760328778845834,0.0024997980780245756,0.04521260340041029,0.3904633119928473,18,32,63,63,3
0.0004476140752664565,0.002255616422906352,0.0417070449811233,0.3354204497000789,18,30,63,67,3
0.0004557017729307027,0.002734498854676507,0.042551498921305185,0.36590175039477685,18,24,64,69,3
0.0003504980243942038,0.0029553788368025112,0.040011228430049256,0.38153623990873964,26,24,59,68,3
0.00043438201693889145,0.002874987149018567,0.04863196571591625,0.41774277577826235,18,30,55,70,3
0.00047123711328544824,0.002925173594407511,0.05336757845088172,0.4377409614892967,22,30,55,65,3
0.0004200451735508751,0.002898234624299261,0.050489163890904694,0.4447402458420875,20,32,54,62,3
0.0004725711665057811,0.0029895673477007283,0.05265609212700138,0.4370910572807715,21,32,49,64,3
0.00047562438100346745,0.002988189055548959,0.05128737262473498,0.4327293663147027,20,36,55,67,3
3.268555613761758e-05,0.0001658765749814209,0.003630345323731307,0.018985872250514096,18,16,87,45,4
3.3652451868598856e-05,0.00017199189601584434,0.003640973990635815,0.019040899111714252,20,14,86,55,4
4.7706528647046223e-05,0.00018562854022110084,0.004042093726672164,0.019503770652752262,20,13,76,60,4
4.227109755498529e-05,0.00019967060659696904,0.003976711719177108,0.020147074262637517,20,16,82,50,4
5.190480066432535e-05,0.00016150076545645099,0.004217071009772217,0.016697566392898332,16,14,73,62,4
5.0669534687507796e-05,0.00016037216025093965,0.004226010154016597,0.015692712190749185,22,12,76,58,4
4.086542042492425e-05,0.00012242024355485606,0.0036190723387662244,0.01362686763430604,22,20,75,57,4
4.456348160775536e-05,0.0001336466680738136,0.0038330722002237034,0.015202797035742456,24,16,76,63,4
3.112599333110223e-05,0.00012722587642408306,0.003441290426478666,0.013900180200434932,24,12,82,60,4
2.8516149782644732e-05,0.00012996492728526904,0.0033058305889689713,0.013799805609729382,26,8,91,79,4
2.329109370739472e-05,0.00017217785424076808,0.0031703701828798302,0.01532561017454931,24,7,92,64,4
2.0615815511538133e-05,0.00014487169598689605,0.0027980295448232655,0.012259731021687603,26,6,98,71,4
2.183460977679355e-05,0.00016898143543383576,0.002723388185098257,0.014452354115639943,30,8,102,74,4
2.3840241284624888e-05,0.00018049386098989664,0.0026477454594650215,0.017389017643733233,26,14,97,60,4
2.4941478949757567e-05,0.00011428764481162225,0.0027390685841554778,0.013448683481297527,30,16,91,64,4
2.447699474387693e-05,0.00012131925935575539,0.0029896265881454004,0.01433873669343023,40,16,95,67,4
2.655589501791301e-05,0.00012567741008381327,0.0029968804185666682,0.016424187472634414,26,22,98,63,4
2.1248923673346174e-05,9.87866880702534e-05,0.0029686712284114148,0.01372536961231239,30,24,99,67,4
2.2485933902298094e-05,9.448592129810729e-05,0.002840832602635119,0.013290758820875468,36,20,103,70,4
2.469683176361555e-05,0.00010940899362895728,0.0029382113893569413,0.015382021057874277,32,18,94,64,4
2.6032035712993202e-05,9.660185485792455e-05,0.003070861663330886,0.013029817120733516,28,28,91,67,4
2.487893707481953e-05,9.912950259559698e-05,0.0030725108261709876,0.013089637054918403,28,24,99,63,4
2.2879997396317202e-05,0.00010535053581085082,0.003165833335550078,0.014337795951859965,32,22,102,61,4
2.4293217135234464e-05,0.00010016571638844389,0.0029517344748258524,0.012541047712585365,34,22,106,68,4
2.1611424410759602e-05,0.00010045213667888004,0.0029374432632239397,0.011182330329208227,38,16,107,70,4
2.378463099919852e-05,0.00010325144570607119,0.003179981043341491,0.01144837522726751,44,12,94,69,4
2.3630422541619247e-05,9.740798596238415e-05,0.003117921929638807,0.011535798563079036,34,20,92,69,4
0.00104870806922513,0.00014753341193092853,0.05937363504149255,0.012305609671833653,4,14,76,71,4
0.0011882890089098344,0.00021153255737382456,0.06668981107139711,0.01923086535856366,6,13,62,69,4
0.0012168835725777007,0.00031982531276884466,0.07169861788096744,0.029421018510616122,8,20,48,63,4
0.0003371318711675648,0.0003601186355251522,0.028393001226893068,0.03470437891302405,10,16,64,57,4
0.000416582242145285,0.0003585145293519382,0.03167420162135792,0.03487143465645066,20,16,55,64,4
0.00029165597661152053,0.00030628844117895404,0.022652279837880093,0.030950635935998415,22,10,60,59,4
0.00024340509858074446,0.00026387612505597585,0.018287020222834613,0.02114398341711784,18,12,60,68,4
0.00015512920250504973,0.00026019564167959803,0.013372025409603631,0.024689913826296483,16,8,57,63,4
0.00011070290125493345,0.0002786748939202319,0.011872122833200155,0.028772006605687465,20,16,74,60,4
9.09220635061543e-05,0.00036745566613904414,0.010836515832716212,0.03855877708901052,20,14,74,68,4
8.051494936657106e-05,0.00034861634268771625,0.009896668199508135,0.03718892855125633,26,14,78,62,4
6.84117792672813e-05,0.0003123053873767999,0.009024599652059246,0.03372453909440867,22,14,83,57,4
5.5349173311898586e-05,0.00030319028724907647,0.006992694424768013,0.03132991278925213,22,14,89,57,4
4.3734929218212655e-05,0.00026401328223826825,0.006257410964190339,0.024793031913790377,38,12,89,53,4
5.904118093932553e-05,0.00041492466165902396,0.0067029144811612046,0.037449405877910916,18,10,86,45,4
8.303371772894158e-05,0.0005242830957995967,0.008863252512841096,0.05002546330268656,24,12,74,52,4
8.819815535293349e-05,0.000537093979732898,0.010026124730537418,0.06280819857324227,24,20,67,54,4
9.541686741179591e-05,0.0006161995634750776,0.010199033897066072,0.07051728211670497,24,22,68,55,4
8.6566663994533e-05,0.0006327545179936649,0.008554595738029214,0.06747552295464072,20,20,59,52,4
5.97698733760778e-05,0.0004967676752985088,0.006328430944120442,0.05272445527545592,20,20,79,52,4
5.382291833719512e-05,0.0003887643231374118,0.00552029252153435,0.04546839187930328,18,18,79,50,4
0.0004255513706164651,0.0013123057421714946,0.05670714631855675,0.17060680726298666,22,30,68,66,0
0.0003894273156485832,0.001254849945637649,0.05378478510883685,0.16216271262400198,30,26,69,69,0
0.0003441674749208469,0.0011560436058383012,0.049859229368466824,0.14427831134640864,26,20,72,75,0
0.00029216594586612657,0.0010262805033021299,0.04247660595900122,0.1341771971573771,26,18,71,71,0
0.00036029429013755866,0.0009098050017664397,0.047451090811630715,0.11723682254556607,22,24,70,73,0
0.0003479848271672038,0.0010490114958200457,0.042654962651657115,0.1345148654915139,22,22,70,70,0
0.00045735762685595173,0.0012016386158588527,0.05512253181686265,0.1489901118046593,24,24,63,64,0
0.0004919117539826979,0.0011750513811649326,0.06001073002847894,0.1422627391839318,20,20,69,67,0
0.0005436899671822984,0.0011302764942513182,0.0577500473684743,0.13891621017386557,18,20,71,65,0
0.0006030975068787356,0.0009835371741228633,0.0624502949054316,0.1193307933917329,18,18,65,63,0
0.0005323957408042067,0.0009257072183424755,0.054263463290632766,0.11416091544032198,20,26,68,61,0
0.000518443722297824,0.0009811337809358554,0.05345344710181156,0.11713525032563187,20,26,66,58,0
0.0004847260093752831,0.0013347469468992046,0.05421917224842439,0.12842459999452482,26,20,61,57,0
0.0003818050751087977,0.0014388625448955577,0.05385027023898651,0.14749637855291828,34,24,70,61,0
0.0004393175998131716,0.0016683524572713685,0.060007520855920565,0.16162222224404962,32,18,64,66,0
0.0004463096335399645,0.001891502897722818,0.061414887614458534,0.1763655058937156,34,18,69,57,0
0.00044948847114002245,0.0017008019243677926,0.06626573112999426,0.1822524240296793,30,22,70,63,0
0.0004952081022126694,0.0018837003648089995,0.07220109874810904,0.18840731708512318,30,20,68,60,0
0.0005035164236746044,0.001782599059482389,0.07428838861813435,0.17675442559330948,28,24,69,64,0
0.0005111853251106498,0.00157513525028012,0.07722958307165453,0.18375450929662535,26,26,69,61,0
0.0005327023678829826,0.0016904086767966877,0.07840106321855436,0.1862657431264694,32,24,70,63,0
0.0004911241777629915,0.0014117488863705113,0.06946127229422322,0.16637148480055866,30,20,73,70,0
0.0005073891304752762,0.0013221810186044868,0.06470464234358728,0.16633106213256466,30,24,75,67,0
0.0004972355394577748,0.0013646353957335493,0.06600585661578155,0.16509991491151682,30,26,68,70,0
0.0004874099214729762,0.0012987417393896827,0.06297342995210488,0.16873403977096885,30,24,68,66,0
0.00047797320790923586,0.00147316576857679,0.06636923668030058,0.17431730612314786,38,26,66,68,0
0.0005176182796288865,0.0015217746099197677,0.07087971305977506,0.176239378541649,36,26,73,71,0
0.0004903894204245948,0.0014797187988467486,0.06470281966803398,0.17067094842441,26,30,74,65,0
0.0005083416403698989,0.0012939020703405342,0.06545975743125723,0.158415229272475,32,30,77,68,0
0.0004940052992937831,0.0011493427956002175,0.06396580362015766,0.15238160172415308,26,24,69,67,0
0.0004353371956539162,0.0010302802542749819,0.05781574531122541,0.1452360371001103,26,24,71,70,0
0.00040545988064945505,0.0009410103710847789,0.0603568739209786,0.13190704755709975,24,30,80,66,0
0.00036494165538771906,0.0010776041475980313,0.055184503127551715,0.14330172298280308,36,26,78,62,0
0.00045128788747710795,0.0012187479548434103,0.060964278393206,0.1520573847175999,28,26,83,59,0
0.00044080508682215814,0.0012911624888760278,0.05724014592562029,0.15191352456942447,32,24,77,55,0
0.00048467024779162726,0.0014011885956713023,0.057712389899934415,0.1590315050699166,24,26,73,54,0
0.0005075613758359627,0.0012844705966633793,0.0628431750391404,0.15394380156409132,26,20,71,60,0
0.00044610720637772356,0.0013862114471919124,0.062125103432321124,0.15716345443633778,26,22,67,58,0
0.00046330589913819853,0.0015051769096982976,0.06809748039602344,0.17419961019928906,26,28,68,61,0
0.0004452709655790691,0.0015945632393772357,0.06899637070300875,0.19303896579929003,32,24,73,60,0
0.0004267641869818854,0.0016099176650339413,0.06537074141729675,0.19147031856459595,32,20,72,61,0
0.0004577019278616368,0.0014954871031601545,0.06976799446121548,0.19088151691259975,26,26,69,63,0
0.000490753684545693,0.0014382480747203602,0.07165474102291992,0.18826409457771898,30,18,62,58,0
0.0004862611621184659,0.0013482236720219467,0.06768235781940198,0.17402789393442827,30,22,68,68,0
0.0005452638082110879,0.001448929828692431,0.06911387563659659,0.18027038801259948,22,22,67,57,0
0.000503887287802702,0.0014493353851181064,0.06447745367926913,0.1838505400925344,20,26,71,54,0
0.00046844850098093425,0.0012726106397439986,0.06102918945848632,0.1677810372218518,22,28,72,61,0
0.00046704290490241383,0.001278931721858654,0.06316982649833576,0.16362887770920156,22,28,66,62,0
0.0004208169649575403,0.001096571416006306,0.06007181417862346,0.15172546540888848,32,26,69,73,0
0.0006361386690142838,0.0008684087591306004,0.08405949895701244,0.10793551044599584,30,22,73,67,1
0.0006150041082972155,0.0008025092777674556,0.09007300610991906,0.11475602115245925,30,24,70,66,1
0.000609688914791469,0.0008401282832880784,0.0916834568780151,0.12760486325248502,28,24,69,71,1
0.0006231642906907186,0.000853724122328165,0.09347561305277571,0.11928146101968261,30,26,67,71,1
0.0006192444409248211,0.000870914951872976,0.09689666873777918,0.12883731167914228,28,32,65,74,1
0.0006189640140010715,0.0008104565335890824,0.09296598952547237,0.11899625090304819,28,28,64,79,1
0.0006681426353184447,0.000828720619806245,0.09774238388868269,0.11210314048470635,28,28,61,70,1
0.0006925109022151619,0.0007510934557013694,0.09441933820095637,0.107228375229371,32,28,66,68,1
0.0006642504962857854,0.0007614843592740022,0.08622734898773939,0.1066945138290964,28,24,71,67,1
0.001233119215425926,0.0005777386954738726,0.10465970796977828,0.08293231868656775,14,24,66,66,1
0.0010600759732728995,0.0005213913373407913,0.07661566513515741,0.06992688639896348,12,22,71,61,1
0.0009135820348621282,0.0005996402493738798,0.05509872018728441,0.06844514942053552,4,18,71,57,1
5.075283425387182e-05,0.0005034183482875681,0.006012300301791022,0.05454063373171348,26,20,89,59,1
9.249950188573569e-05,0.0005737834929981214,0.009552895733225845,0.06405549460439197,22,22,81,59,1
0.0001417644622556195,0.0006069879346959835,0.016602608357067096,0.07459358046560376,14,24,72,64,1
0.0002998486407008906,0.0006742064030294115,0.032856221871845344,0.07675576635814402,16,18,62,58,1
0.00047295552890328987,0.0007249691854194326,0.049925323574851424,0.07987299839367,18,22,54,53,1
0.0006113951402549553,0.000774002273194982,0.06238189114892179,0.08482397192307399,20,22,55,51,1
0.0006997699909410611,0.0008997551077975574,0.0805905575105813,0.09401431661250836,24,24,59,53,1
0.000761161253243825,0.0008066436798560649,0.09302284607543371,0.0963903153297992,20,28,58,58,1
0.0008186032731104438,0.0007824782783656214,0.10603423714608952,0.0938795393965212,30,26,57,66,1
0.0008923176877216515,0.0007181964973409164,0.11916428665038695,0.09413610066184695,30,26,53,70,1
0.0008546776564704811,0.0006406510402623029,0.11404377150191236,0.08984413331246442,32,28,53,72,1
0.000775851684898629,0.0006053743762813326,0.0988178530217081,0.08737642823525445,30,22,59,73,1
0.0006943178114662824,0.0006150347360039904,0.09001076795506678,0.08980944167684628,28,28,55,68,1
0.0006516913214180294,0.0006468789637178333,0.07835144547900669,0.09694080740898889,28,36,53,68,1
0.000690700809607067,0.0007351033001218978,0.09029886190422749,0.10408419809663287,24,30,63,68,1
0.0007406871282549983,0.0008224585041025903,0.09608883251238115,0.10992024442780339,32,26,66,65,1
0.0007235097616416588,0.0008879490210250897,0.09496010460112908,0.11697270561532067,32,24,68,64,1
0.0006553982718027341,0.0008471359106340109,0.08819199821708411,0.11197350621030142,30,22,70,68,1
0.0005926539229621507,0.0008207944988146026,0.07899364058308288,0.11501449233172548,34,28,70,61,1
0.0006528852439225074,0.0007150699119725081,0.08563842770131112,0.10135659549226683,26,26,61,59,1
0.0006145798478373748,0.0005969251232998652,0.08305037348987136,0.08600736731189357,22,30,65,75,1
0.0006632597597657508,0.0006922168109602097,0.0947444627808353,0.08840173998988812,30,28,62,67,1
0.0005706905631676453,0.0005848777650082449,0.08381390251231197,0.07556878291972169,26,32,63,71,1
0.0004887135421108724,0.0005415419656562537,0.0678563103849423,0.07177681973536804,28,30,69,77,1
0.000455062923822692,0.0005969093826126699,0.06572448782408138,0.08389426337003365,24,28,72,72,1
0.00043183110267841875,0.0005971565283670058,0.06203119212274927,0.08730501817861014,26,26,70,68,1
0.000501849996381011,0.000635734331853903,0.06238317985720848,0.09027266290077525,24,24,71,69,1
0.0005373033312620223,0.00064972551238031,0.06682276714716126,0.09567423169194955,30,20,70,66,1
0.0005834862323206438,0.0005947137598896427,0.07163607726681621,0.08910429780054581,30,26,67,67,1
0.000576210123350299,0.0005438129254323963,0.06815213596021572,0.08366157574401273,26,32,67,72,1
0.00048200630062505544,0.0005346160556531442,0.06509981889120459,0.07818622473358405,26,28,68,74,1
0.0005303129719952226,0.000500867186730992,0.07371098621404666,0.07457637090875618,24,28,65,70,1
0.0004880454637392967,0.0004844692778316394,0.0657081000445411,0.07189217670088952,22,28,68,81,1
0.000467507838726435,0.0005201750190131169,0.07114642794143235,0.0732755793784186,26,30,69,71,1
0.0005112404943520284,0.0005873204778540834,0.07594235458235983,0.08730141228647932,26,32,64,72,1
0.0004915150820194997,0.0005900592842243074,0.07241941291428397,0.0864658084473986,24,30,63,72,1
0.0004546683320276295,0.0006685277513419043,0.07041886416847923,0.08844962593624166,28,20,66,69,1
0.0005530990058151643,0.00019455512151788412,0.08943250277584858,0.024854451645531517,42,36,85,79,2
0.00048795163893436503,0.00019355026222645004,0.08783606787083122,0.02539889764946504,38,36,86,78,2
0.00046077539106352777,0.00018444406888836962,0.07804420902495358,0.02348182067130627,36,32,87,81,2
0.00045654172558975156,0.00017262900243600557,0.07801506392831681,0.024207662400443947,28,28,87,88,2
0.00048697246983097855,0.00017857640556371117,0.08429006699395908,0.02621244107643038,28,32,84,85,2
0.00047370492918972747,0.00017227412128420678,0.08227874932944722,0.02564889376099386,26,34,85,85,2
0.0004985221531009389,0.00016472169301732015,0.08655154490653849,0.025519242937038927,30,40,81,87,2
0.0004700427416569989,0.0001637499658133678,0.08000837156595596,0.023473359264789752,36,32,78,79,2
0.00044111114509128957,0.0001590579858606345,0.07643369213944594,0.021591154993635238,42,44,84,80,2
0.0005345646851126826,0.00019242449682579978,0.06905749083093261,0.02196722072950098,26,28,73,74,2
0.00039523599332740765,0.0002027261836628992,0.04825249234486382,0.02084269765728585,24,22,71,61,2
0.0003436631101192604,0.00019909231725643678,0.03569797163822689,0.01899330640783238,12,20,71,59,2
0.000204923828262395,0.00017952116888487164,0.020506810940593465,0.015660563621493206,20,22,63,57,2
0.000295029627748087,0.00023250475963104418,0.03017524062949849,0.017818555147259933,22,14,63,62,2
0.0005284437296348745,0.00025217770231021207,0.05303435683651406,0.020305014255598906,16,12,66,59,2
0.0006292848967235767,0.0002624450382934646,0.06946823620998395,0.024202134235265824,16,18,73,75,2
0.0007705949397495898,0.0002821150207896443,0.0928616181968699,0.02848676556467418,16,20,69,72,2
0.000789418033319142,0.00025138217402530813,0.10398388269559863,0.03172382107401345,20,22,68,73,2
0.0007812030726851755,0.0002667762794872493,0.11074427401088477,0.03581177123654837,18,30,69,79,2
0.00086524056391432,0.0002775054291764843,0.12324958686381036,0.03840693340233292,20,34,65,74,2
0.000771023606612065,0.0002676351572603062,0.12084727682259025,0.03900944445852582,28,36,74,81,2
0.0009092026532885485,0.00028533523134973945,0.1446834330935233,0.041568692738178814,30,34,75,83,2
0.0010598289520887328,0.00030589403395527557,0.17742649267233784,0.04523983310055826,34,32,74,77,2
0.0010851658951156176,0.0003196682588461396,0.19178874260754442,0.04695798516557889,40,34,75,79,2
0.0011794873292217446,0.00030680173436901584,0.2060753836951127,0.04853279142577817,38,34,77,76,2
0.0012366832722411195,0.00029039662130881776,0.21036357416307455,0.04763517289300585,42,42,75,76,2
0.0011302573548531848,0.00026308687252423585,0.2046299911598258,0.043426156387977144,38,38,80,90,2
0.0010681034667211111,0.00024291761472502259,0.190845284167852,0.04062265609817235,40,38,81,96,2
0.0010771629720304566,0.0002346658146100139,0.20071665620209345,0.04015369815496499,36,36,83,99,2
0.0011013197332795871,0.0002447322190523422,0.20383584600991905,0.04030291316310057,38,30,84,98,2
0.0010852274886260884,0.00025674865449777087,0.20457815012701444,0.04001714927760352,36,30,85,93,2
0.0011159701895292287,0.00026582042872028513,0.20453708245177718,0.04389781996740708,32,32,86,91,2
0.0011598835108797263,0.00025643016574349237,0.19588098489401248,0.046033600581196016,36,40,85,91,2
0.0012122734966500267,0.000284411914893414,0.19922255424151789,0.048408426767403756,38,34,89,91,2
0.001184673437307427,0.0002840220626335035,0.20757723760299454,0.050436229882240974,40,42,88,84,2
0.0013789790561788808,0.0002798996395204731,0.22857571865182275,0.04794422182048561,40,44,85,80,2
0.0014119236221899125,0.0002865418518715851,0.2522578494420498,0.04738946585542461,36,36,79,82,2
0.0013768287808038412,0.0002942895190639136,0.23142677559864114,0.04327284185292602,38,32,82,85,2
0.0012592910075913024,0.00023735825499744255,0.22027667162828427,0.040979180869800014,42,48,78,89,2
0.0010651502537915123,0.00020700078289283668,0.20078314937760056,0.0372576838205923,38,48,84,92,2
0.000976436915704901,0.0002002951566248937,0.18128927799080763,0.036691272353642716,40,44,77,94,2
0.0009160593969762484,0.00020285460991147818,0.16360657696123418,0.03625148961106519,38,40,79,90,2
0.0010082481881787066,0.0002072659790692903,0.16481986935042575,0.03638166166467801,38,34,78,92,2
0.0009604390115353555,0.0002015441876830815,0.1672202249074151,0.038433288329745297,40,42,85,92,2
0.000938636141316306,0.00020807151992050063,0.16156612705785478,0.0378704626045632,46,42,86,93,2
0.0009749125353322065,0.0001936991413883305,0.16819091944034384,0.03664922540964359,44,50,84,90,2
0.0008784514053130994,0.00018061324587100868,0.14850835697646417,0.03160831170134722,40,54,89,91,2
0.0007536369146670549,0.00016789760930422792,0.13828287486898377,0.02809805214685736,36,46,89,86,2
0.0007142368147726229,0.00016029401130931932,0.1295424092603798,0.02579625836529167,36,44,85,88,2
0.00047391171372217195,0.0034581388419089314,0.04622678672718314,0.4619609353869279,20,26,50,63,3
0.0004532589225564244,0.003123961853589372,0.04517062046913702,0.4230213459914433,20,22,53,59,3
0.0004021468630635897,0.003060533318773266,0.04275019206273635,0.4164952156513458,18,24,59,61,3
0.00040497846208261974,0.00266327427415443,0.039531416442877595,0.3955432191144824,16,20,56,64,3
0.0003963586965055345,0.0027385571003154885,0.03935269462647123,0.4119832947562401,16,26,66,69,3
0.00040749444855220173,0.0024407029265552504,0.039709304888917545,0.3917684468902113,18,28,66,71,3
0.0003909817015973881,0.0024856771367987077,0.04031291347840085,0.3968106791594916,20,26,63,71,3
0.00044757358828412675,0.002350096252975276,0.04429004164939428,0.3745048665363752,20,26,59,68,3
0.00048720069647699996,0.0021991802788486866,0.04480432470978639,0.3329799202775538,16,30,49,69,3
0.00048464582909826684,0.0048218668124566785,0.04160738778836054,0.45357637661239564,18,16,51,66,3
0.00047455488883314134,0.00495771547055838,0.03866036451544374,0.4165190631236285,14,12,48,58,3
0.00040103632110035064,0.004896506329377916,0.03488316931581365,0.3851307769127988,20,14,52,55,3
0.0003212914470143301,0.002160903112137193,0.03220955397172511,0.2518619869846146,16,28,56,70,3
0.0003260924545596675,0.0021831017660629906,0.03288582824545746,0.26496738475150433,16,24,55,67,3
0.00032905665696376555,0.002257024436014375,0.03453412518324036,0.3168454008434993,22,32,66,68,3
0.00030064609822870697,0.002230001346518606,0.03025120594235606,0.3168887880447432,22,38,68,75,3
0.00026790831647984734,0.0020018988083278207,0.028898302013715786,0.3169227224220345,22,42,66,75,3
0.0002943139405984074,0.002096744020729139,0.0319230577372457,0.33677857215949897,26,36,62,77,3
0.0003473181734375656,0.0019194577942710709,0.035683164206900785,0.3140782300390478,18,30,58,79,3
0.0003926369534148299,0.0021228031514491136,0.03857069556032987,0.3313275552390842,16,26,60,73,3
0.00036415329618677794,0.0021733695592790567,0.0397140345987719,0.33061436958856794,22,34,60,67,3
0.00043944663199480926,0.0021396238527945617,0.046453305013959036,0.3171645858620015,20,30,55,66,3
0.0004014814011422155,0.002337334274071574,0.04571464877084176,0.3291088788132318,20,30,58,64,3
0.000441470650728833,0.002476441755648561,0.05182458113361478,0.3498949117287894,21,22,64,68,3
0.0004766688013659382,0.0027882856443305236,0.05067253490580892,0.3832191109446501,16,22,62,64,3
0.0004403165130647655,0.002885317661982275,0.043892873898849445,0.38802822461775155,18,26,63,67,3
0.00046041505636227047,0.002482326760420016,0.04024074083797973,0.3728851942652213,14,26,65,67,3
0.0003441564240320167,0.0021490315703609226,0.030837257131206053,0.3429541872007113,18,34,69,68,3
0.0003559841412109471,0.001942388238244783,0.0316063938868244,0.308816161768822,16,30,71,70,3
0.00038237166318862056,0.0020217076500461707,0.03383172354184713,0.324277372278853,20,34,72,69,3
0.0003479636894492328,0.0023585343079329485,0.03500699256267669,0.34044636249194876,18,30,71,70,3
0.0003826686315557119,0.002217128116761136,0.03661361529234379,0.3359148124074014,20,24,66,72,3
0.000441125791433288,0.0025794958400219515,0.04364033066577325,0.3816985159832332,20,22,63,70,3
0.0004021902844604568,0.002414645659614935,0.04263170489892851,0.35454440380334673,24,24,65,72,3
0.00036402671833607177,0.002402545658186473,0.039663833263696886,0.3460585627237327,22,30,62,66,3
0.00034305339701158367,0.0024365575357194733,0.03859921318145674,0.3477840381556912,26,26,62,62,3
0.00028057940476403537,0.0020433634870745073,0.03188517390984951,0.29019050342698316,24,24,60,64,3
0.0003252788068624028,0.0021105987385073056,0.03305157731182845,0.29234571613123017,24,24,59,60,3
0.00033964471126125633,0.0019967223098576138,0.03514465256726089,0.2646394531292278,20,24,60,67,3
0.00035095464753605413,0.0018374001348933303,0.034086069898410766,0.2440248468394268,16,26,63,68,3
0.00033037208698513654,0.0019058717738209073,0.03431296424362268,0.25021815094828564,16,22,65,73,3
0.00033569134603000656,0.0019094375787255624,0.033672670039521194,0.2604679317836892,16,22,68,73,3
0.000365354586769619,0.002074159843245604,0.035169433726545005,0.3048952231852646,14,20,63,68,3
0.00036555762189094664,0.0020774416674470934,0.03612405080355589,0.3109001290207407,18,22,68,71,3
0.00037718466139681267,0.002127561268754442,0.035615777020911135,0.31645958705285676,20,24,64,71,3
0.00034771387737769327,0.0022862567929665513,0.03365019836518894,0.3099432468012584,22,26,72,69,3
0.0003069932190420658,0.0019219363629331913,0.03231933486884864,0.27764935460541046,20,24,72,72,3
0.00030776555772952916,0.0019898772654690995,0.03230406111868219,0.2849955878633622,20,24,70,70,3
0.0002971625109785117,0.0017985723004219662,0.03344283541017997,0.2755109995924001,20,32,73,71,3
4.298215333936678e-05,0.00023250950711085084,0.0040221657012847805,0.02261916343379029,20,18,73,61,4
4.559144216793168e-05,0.00023005162653089276,0.004353755013373013,0.02299425120695195,22,20,62,54,4
4.4042684694870425e-05,0.00019231535826322904,0.004362213965756438,0.019572996520741456,20,18,71,55,4
3.478196645935484e-05,0.00021024503205043096,0.0038499704549610422,0.02008576592246938,27,14,79,58,4
3.081713629509589e-05,0.00020894694983915544,0.003584745913642976,0.021735038180655687,18,16,79,61,4
3.190718827480923e-05,0.00019078385841058792,0.003499760491128528,0.02048241071245649,19,18,87,62,4
3.0377031301214967e-05,0.0002422823553131587,0.0035431479785350477,0.02366656239878635,22,20,91,62,4
3.4230895882982324e-05,0.00023823681698378923,0.004051798056822222,0.022336878442208673,24,18,90,61,4
3.2956418763087386e-05,0.00023939139384745247,0.003975741520268563,0.021656846100870895,24,14,93,53,4
3.752112312790099e-05,0.00023868368546046904,0.0037683648597444854,0.02348239927579201,22,16,88,63,4
3.469327621381495e-05,0.00021466347455008735,0.003668999787186792,0.024832166098091392,28,16,86,60,4
3.680018441479217e-05,0.0002989331286805111,0.0034858735687296406,0.027515618180123436,30,12,81,57,4
3.317299862043488e-05,0.0002949845790694904,0.003691604472747379,0.029806334790605092,24,18,81,55,4
3.3796862503609345e-05,0.0003173088341737732,0.003841359432298523,0.03206782699691339,20,20,85,53,4
3.5169209756999166e-05,0.00028904849124090573,0.0038456632040226,0.027936820074715096,16,22,84,52,4
3.410275879410545e-05,0.00024154800742900087,0.0038381855369218777,0.027001900404875562,24,28,86,60,4
2.9754246154543963e-05,0.00020795804585664504,0.0037048702143345847,0.02376957293819474,24,18,84,71,4
3.55857440271566e-05,0.00017861099053330374,0.0036684913523819386,0.020844428323029622,32,26,83,59,4
0.0009239378942212483,0.000302664576825667,0.05233336946896478,0.028330418542260864,4,14,72,65,4
0.0014966966088692992,0.0004709535846467433,0.08189985452746888,0.03353613477370098,6,14,74,71,4
0.0015235886420024874,0.0004884924658415603,0.08184200807819011,0.03427926655507201,4,10,70,67,4
0.0007668487716620085,0.00041305707090517603,0.041548087856623214,0.030078456243036296,4,12,74,54,4
0.0007160161816957785,0.00035746898796136484,0.039526839793629684,0.02654848215329359,3,13,59,58,4
3.1559486667895376e-05,0.0001861537256425947,0.004556267381644193,0.021159989507445326,36,14,98,70,4
3.2494211191526335e-05,0.00015735325295384333,0.004329602912823412,0.01947753083390009,34,20,98,62,4
4.0963559091379374e-05,0.00016733407907506794,0.004719640004272028,0.02030048147252219,31,14,88,67,4
4.140843577151711e-05,0.00015148860514008994,0.004773071796479545,0.019485798704907173,22,14,87,69,4
4.319219269573681e-05,0.00018266521518939426,0.0050564130428134395,0.023515515176234895,24,16,84,73,4
4.16938341567697e-05,0.0001940760392316064,0.004941525613014258,0.025080549636022204,24,22,77,67,4
3.524629054295039e-05,0.000214722481468845,0.004825029373697375,0.0264517377791705,32,22,85,68,4
3.397277310233418e-05,0.00021367570911855194,0.004740613137903918,0.02739737864456661,34,24,85,62,4
3.8571289278374604e-05,0.00017592884453379278,0.00470752386476007,0.023474537695780857,20,22,87,65,4
3.805652599715227e-05,0.00015367217400334866,0.004755871503445213,0.020215077513943983,26,16,82,74,4
3.713392882557743e-05,0.00013590882279889313,0.004545759617532909,0.017378124630352074,16,18,87,79,4
3.95306585214727e-05,0.00015688869058371109,0.004896748406590446,0.019539205583928215,24,16,89,76,4
3.237728629989443e-05,0.00013822969749320829,0.004122073784220386,0.015517862698913924,24,16,94,77,4
3.3262438780683006e-05,0.0001758663419764051,0.004558273353305432,0.02043339143429625,32,16,97,76,4
3.5686039665035223e-05,0.00015155552575320174,0.00440278930506343,0.01791595484671695,26,14,94,69,4
3.4982689434999865e-05,0.0001446453547531264,0.003960251691317883,0.016204992331879695,24,10,91,77,4
3.337476403685199e-05,0.00013805300043844948,0.00402311263091012,0.017132969289098507,20,22,95,75,4
2.7759106494404637e-05,0.0001431006858605105,0.003984512459114348,0.018414047904351007,26,20,94,72,4
2.6466301227859886e-05,0.00014393866870749633,0.00403844180998857,0.01901882690350474,36,20,92,74,4
2.7698679812479023e-05,0.00014761157646748718,0.004171691176891513,0.01939973091362739,34,18,92,71,4
2.596178893629775e-05,0.00014229742083953165,0.004001089705804474,0.018332551543905312,36,16,95,71,4
2.958822119894955e-05,0.0001285932295365502,0.0038617738964491746,0.016356736242536304,28,18,96,73,4
3.0015524010680306e-05,0.00013610807764282074,0.0039221113325468284,0.01742159734620046,41,16,94,77,4
3.0740339168852496e-05,0.00013844110883134704,0.003922209821995982,0.016716423950699145,32,24,98,75,4
3.0566540968407174e-05,0.00012599841100743275,0.0041538967669982685,0.015743903419154128,34,18,93,79,4
2.9748084317564436e-05,0.00013507053751343878,0.0041271335050973275,0.016607201215775056,26,20,92,81,4
0.000435324472214473,0.0014753008733263229,0.06386709362639231,0.16841640964534543,18,18,72,67,0
0.0004945921751695579,0.0013646742472924209,0.06501514949924794,0.16369478996693723,18,18,71,71,0
0.00044575635121601537,0.001218092726865803,0.06398388418407762,0.1650708945918908,20,16,80,66,0
0.000424085667079654,0.0012472374081695893,0.0627946952551134,0.16300832826681572,16,18,77,60,0
0.00048991877439898,0.0011390122280150003,0.06759156270313783,0.15465652121518414,13,18,74,68,0
0.00043223093593799456,0.0012163164392142367,0.06275593391102748,0.1496092185111496,18,18,75,65,0
0.00042728899533377217,0.001235839551252637,0.05641123393400571,0.1351327809982832,22,16,74,66,0
0.0004985919309958094,0.0014121906241014639,0.06426585648529763,0.15150629263411733,22,22,68,63,0
0.0004764543556304929,0.001251512056939383,0.05984741366601099,0.14821630415438253,24,20,70,65,0
0.00045513758411423006,0.0012455657905017555,0.06127771012803599,0.15091673367698244,22,22,71,63,0
0.00047301797470192703,0.0012849247578942857,0.06293100056817219,0.15700662954420366,34,26,73,61,0
0.0004238108925894403,0.001100227669868909,0.05901881120672568,0.1432695263412187,28,26,74,66,0
0.00048559745141506,0.0011280802092458536,0.06259767253335803,0.14393283184758748,32,26,67,66,0
0.000487736133683515,0.0010048517598737234,0.0576187223633343,0.12998679833600138,26,24,59,75,0
0.00047533384642600165,0.0009931814721044604,0.05674841044407528,0.1417483851177617,24,22,62,74,0
0.000433584448551499,0.0011096325867029258,0.05554290429313127,0.1535494842633543,26,22,65,77,0
0.0003949644831220331,0.0011568364884830679,0.05419023906306811,0.15871364087109388,28,26,67,75,0
0.00038378656523294715,0.0013436808315731642,0.05686405724743754,0.1788098042029071,26,20,67,67,0
0.00038962887133852845,0.0012707048398562266,0.059798237647446226,0.16967627850221226,22,16,65,67,0
0.0004404337917572021,0.0011951082570211427,0.06697601860204017,0.16253592050549717,24,18,61,71,0
0.00046529270851785774,0.0012220728190966246,0.06750085432005425,0.17191411309678348,28,20,65,73,0
0.000544684957942872,0.0012290747504674934,0.07182999964432543,0.1711819842312396,28,20,61,68,0
0.0005079619380797827,0.0012559431532539805,0.06488468584119268,0.16829307137610983,26,20,64,69,0
0.00047508253455271485,0.0013947817210400758,0.06292697527919196,0.17214215790415627,28,20,73,67,0
0.0008553117015737164,0.001087677525759144,0.10691442940500885,0.15692226196630077,18,20,58,62,1
0.0007887791500911723,0.0009079656692087802,0.10888853069462084,0.1355515446546802,12,24,60,65,1
0.0008679627847270685,0.0009026080046089901,0.11685456029830234,0.12924546587441563,20,22,60,68,1
0.000841902387683091,0.0008793281031909932,0.1223098570405064,0.12082821121983382,22,20,65,66,1
0.0007476969807754197,0.0007074402714871423,0.10984234802434989,0.10324713896952198,22,22,66,72,1
0.0005808167200534015,0.0007623860521540263,0.08440437751628896,0.11031430539942387,18,24,69,76,1
0.000568244863619115,0.0006655580934832222,0.07337435308833562,0.09269511365638168,20,26,63,74,1
0.0004056421515080724,0.0006324104264489985,0.05060216357143807,0.07680634320805038,22,34,63,76,1
0.00038534756079354997,0.0006844754113409727,0.052882455857796086,0.08631443584308487,22,28,59,77,1
0.000524177492443269,0.0006547152549270319,0.07209546275308892,0.08165816099657527,26,30,63,78,1
0.0005275815473284814,0.0008460261359462903,0.07897017730152742,0.0997279856102862,24,20,66,78,1
0.0006045602599452399,0.0007168131585511745,0.09087640334082378,0.09863038841876191,24,20,70,73,1
0.0005860166440667085,0.0006539434106139511,0.08940730353227849,0.0895487705909888,26,16,72,78,1
0.0006046811247919071,0.0006941631256258704,0.08930135875484749,0.09092132349350822,24,26,67,73,1
0.0005831326743597114,0.0005951866061615568,0.08109912795259874,0.08130853254967231,22,22,65,78,1
0.0006215601684280148,0.0006959139685931045,0.08325714054873139,0.08926216075009823,22,28,65,77,1
0.0007793061978563033,0.0007388435965820204,0.10017539130585706,0.10178357963330607,18,30,59,72,1
0.000706096841175699,0.0007835325165619233,0.0913926423497038,0.11052189912252493,24,32,64,69,1
0.0006578836171663894,0.0007470482306035944,0.0893494763680755,0.10469347213750764,28,36,67,67,1
0.0005806784179746571,0.0008473454613193888,0.07950466077896795,0.12057821584786643,28,40,68,68,1
0.0004646390319658422,0.0008186641025951301,0.06554631817575705,0.11328940750057397,30,34,68,68,1
0.00045083595981648835,0.0010130746894117684,0.061590082287725174,0.1196823823778204,22,28,69,69,1
0.0005272811745517366,0.0009556198971341431,0.07278913761441785,0.11540810673861561,22,26,71,69,1
0.0006115932653357429,0.000935769558672907,0.08266525417821774,0.11401641797022502,20,34,67,67,1
0.00037897442595635403,0.0002591017565342056,0.04503280235820003,0.02495985280670276,18,16,58,64,2
0.0005414513628126343,0.00024471220460330664,0.05146681308012376,0.026365760530446883,26,14,58,65,2
0.0007358365520778702,0.00024500504836969466,0.07907571212333628,0.028070002344455395,14,18,60,75,2
0.0008131520403171909,0.0002542685836590531,0.0913270374746997,0.034501482258431374,18,22,62,80,2
0.0008351766169596945,0.0002672006715283467,0.10095102476387255,0.039010665091715656,26,20,65,83,2
0.0008032817543428786,0.0002875349910830132,0.11611727080245049,0.044150112546684446,28,14,76,85,2
0.0007492503638159574,0.0002736193386400186,0.1105791916307272,0.04233379277743338,24,20,77,80,2
0.0007469427243002967,0.00025289111837524124,0.11334323644037898,0.039863284939590925,26,16,76,82,2
0.0007702306725956906,0.00024133690803222922,0.12198081647748284,0.03905415027619515,22,18,81,78,2
0.0008635162122920711,0.0002194346271454174,0.12979121472356756,0.037294159890867186,22,24,80,80,2
0.000903714938825666,0.00023683265151151195,0.1405470829929961,0.03770017830905604,22,28,70,82,2
0.0009718157035204789,0.00022368629549738412,0.15409999981972666,0.03511790271957759,24,16,70,85,2
0.0009141664832658435,0.00021429868242257583,0.1497334880053482,0.030576440763240054,22,18,70,85,2
0.0008574484459975319,0.0002102982462084601,0.13984780269162325,0.029872610004374398,20,18,71,89,2
0.0007923064487057953,0.00020087485488812622,0.13116689538414206,0.03257771365073308,18,20,74,82,2
0.0006855283887556503,0.00021520980399656863,0.11761498406261962,0.031343824187433436,20,28,78,79,2
0.0007853134725762905,0.00021485447301019378,0.12044705320933764,0.033273462766719476,26,38,72,83,2
0.000664790565089489,0.00019681948629200006,0.10712076843343647,0.0319638831999519,34,34,74,79,2
0.000646047809548258,0.00018467767936463712,0.10368201900521946,0.028676706232503943,42,40,77,81,2
0.000630066918076174,0.00018109245148516958,0.10700175199296008,0.02715186744464983,42,40,79,88,2
0.0005351219481925437,0.00016523389543940327,0.09741317820657651,0.026440236155192986,38,34,82,90,2
0.0005491863764605482,0.00017086095525519672,0.10029692804153689,0.0244573441022106,30,32,81,92,2
0.0005639854886409903,0.00017209744286256508,0.10253164832171595,0.02446447263811046,30,34,81,89,2
0.0005372732459024657,0.00018342012226947973,0.09675907097324446,0.025392445589157812,30,38,82,80,2
0.000484937126680411,0.002858013376661591,0.046543085008174834,0.4087628941514931,12,22,56,70,3
0.0004900886548194316,0.0029688156332984537,0.04722819236966201,0.40854874990519097,14,20,53,76,3
0.00043506099446196164,0.002939018009004006,0.04111489964037591,0.3989023255350079,18,16,52,76,3
0.00037379994704564705,0.0025448242082197177,0.03690971856406892,0.356810239640462,22,22,60,72,3
0.0004359742009543188,0.002706303972276031,0.04121711417447912,0.3704284442292978,24,24,58,72,3
0.0004997836710535338,0.0025506548518947148,0.04716704353247152,0.37596719257598965,22,26,59,70,3
0.0004923669375833202,0.0027053110431174603,0.04902892123795292,0.41085104022554864,20,26,53,68,3
0.0004986513589607987,0.0029541529526690685,0.04675636161531697,0.4259089456523367,22,28,50,64,3
0.00041704749193327686,0.002887999191692853,0.04202738736981886,0.4396910120551502,20,30,59,62,3
0.00032352323709082705,0.0027629184741230378,0.03603466127783099,0.40736160632987534,20,32,68,67,3
0.00033228922959321937,0.0029545613972045094,0.038043534039884926,0.40589666095003624,16,32,65,69,3
0.00029566079887507704,0.0029943333554887765,0.037157017216901705,0.43386871679312256,20,30,70,70,3
0.00030215053482151764,0.003154346843319585,0.039359609961258354,0.47665186310573876,26,36,66,72,3
0.0003197543892781721,0.0034734327406963843,0.04067800029763033,0.49697135546075333,30,34,59,72,3
0.0002926679312777599,0.003338219241808588,0.037899374109681194,0.49743798070461603,20,30,64,76,3
0.0003039711881068748,0.0034777903679134863,0.0397838689560799,0.5012985282213134,22,32,67,76,3
0.0003429377832209749,0.003470013012349129,0.044117930810698924,0.507735934960575,24,34,63,72,3
0.00036618523497241906,0.003398261622282314,0.045593192672297944,0.5349625778077446,24,38,63,71,3
0.00036760589514716837,0.00332241270730402,0.046573986805773085,0.5139821226542145,28,38,58,68,3
0.0003461365472663298,0.003197265247472317,0.04297116979863573,0.49975261573394714,28,34,60,75,3
0.0003600936132012081,0.002975570973427582,0.04016119934377762,0.5001615278717476,28,34,60,75,3
0.0004452047254167747,0.003163096740240578,0.04083909915305237,0.5064185004939825,24,36,63,71,3
0.00047246211947594985,0.0032313747945116366,0.04050148244850234,0.4838257742251264,22,32,62,70,3
0.0005051301909462125,0.003564781458850607,0.04456684796134658,0.502168893168328,18,32,55,64,3
5.2240938141945484e-05,0.00036855257842954354,0.005471357371839632,0.040729106715789394,18,16,73,46,4
4.5291573352390797e-05,0.0003299002302049591,0.004930502366386956,0.0356757791433234,20,14,84,56,4
4.458444426924461e-05,0.0003782943708955323,0.005067417058312071,0.03912837032198952,20,13,87,54,4
4.344076994118392e-05,0.000331520387675061,0.004823649432152782,0.02992886304258597,20,16,97,46,4
3.2514503946194244e-05,0.00029267052560112054,0.004176684434996565,0.026756637961196258,16,14,97,40,4
3.116972307700601e-05,0.00024046864500336357,0.00388354005916896,0.020895961642938526,22,12,101,54,4
2.353468566157195e-05,0.00014173621624827406,0.003535382459591827,0.013274727548138538,22,20,97,71,4
2.9069650932595317e-05,0.00014007115354613628,0.0035916452046695197,0.014095375167561555,24,16,90,67,4
2.8317931469825608e-05,0.00010787204865384464,0.003768365996401947,0.012059298348967238,24,12,92,71,4
2.802663526258247e-05,0.00012384930639297183,0.0038184732849598792,0.014615951025459237,26,8,101,65,4
0.00016507914102342967,0.00013038294395264024,0.010685825925979539,0.015309984528325856,24,7,75,72,4
0.00017687163678219538,0.0002718876181682316,0.011113978333848137,0.027072882396468892,26,6,72,54,4
0.0005628465284710489,0.0006143002348322942,0.03186955275284857,0.046549373025817804,30,8,68,54,4
0.0005766299251036046,0.0007084728634131701,0.03189798427044489,0.05487638440302794,26,14,61,56,4
0.0004549454523925486,0.0007568294402882142,0.025572489029400722,0.05504334142081932,30,16,70,62,4
5.2125673108786495e-05,0.0003935321390701783,0.005102283214431598,0.03916691833005335,40,16,80,57,4
4.671008851607436e-05,0.00035354269723483105,0.0049082207927137675,0.03574628995353166,26,22,83,67,4
4.8553647637685675e-05,0.0003128207501336072,0.004978647847851966,0.030427149192954105,30,24,79,67,4
3.8014084660232965e-05,0.0002589118500367155,0.0045139323843812265,0.028949966535580966,36,20,89,67,4
3.2894208538877377e-05,0.00023826660773273108,0.004269218579278193,0.02310068403256976,32,18,92,69,4
3.153707493319006e-05,0.00020993839969984428,0.004075282098723834,0.022476997452723437,28,28,91,70,4
2.9459282805855882e-05,0.00016452048751249508,0.003532213764099454,0.019453691252140977,28,24,93,83,4
3.3734684597981175e-05,0.00020809193942439573,0.0034054020647904513,0.021526965324542867,32,22,81,71,4
3.931204852030836e-05,0.00019294754912990518,0.0037410803465567685,0.021642032199979892,34,22,77,69,4
