f1ch1,f1ch2,f2ch1,f2ch2,f3ch1,f3ch2,f4ch1,f4ch2,Category
9.540245794805219e-05,0.00010926279822379373,0.01292546468578809,0.01181662425635953,16,16,65,66,0
0.00013957566452571803,0.00035405925562957577,0.017501730075925568,0.027833551316807065,18,6,68,65,0
0.00024727681950395807,0.0004762919654553372,0.029606137362059894,0.038625439912795385,20,11,71,55,0
0.00024650331042763994,0.000632266209772211,0.03516564761921343,0.055943528194932965,24,18,69,52,0
0.0002500948410668526,0.0008847788233876385,0.03479773030742462,0.083773067464687,22,16,71,54,0
0.00025031847180174266,0.0008700927799980409,0.03356855765629885,0.09356227630698705,20,20,75,60,0
0.00027833099923180415,0.0012728010327015319,0.02900020721200614,0.12131643387744871,20,18,74,55,0
0.0003011815385837152,0.001336732716690487,0.032822847498077526,0.12900157294768305,16,18,72,55,0
0.00032517843635435187,0.0017628683376878893,0.03453652155924975,0.15144866705631257,20,16,74,55,0
0.00040584273359842973,0.0018869205640816623,0.04700709308998682,0.16750863816526299,20,18,72,54,0
0.0003715687389058025,0.0017157153948779988,0.04370835899900289,0.16626464352021328,18,20,72,55,0
0.00037062383024746354,0.0020395728984952443,0.04675862348310343,0.195418807621133,22,18,68,52,0
0.00042173663592754676,0.0017985414810138725,0.05575982895906074,0.18319783627690592,24,24,61,51,0
0.0003465633029671644,0.0022153102042248973,0.04769558792471677,0.19414838343994129,28,18,69,51,0
0.00046105478380444064,0.0020161885493016275,0.05882764887212854,0.1851218428008282,22,18,65,57,0
0.0004116222702490168,0.0017792496080934355,0.054524881005580166,0.1744181677158277,20,18,64,52,0
0.0004435161505710746,0.0018687986581667484,0.053965317495317876,0.19297465665134186,18,22,74,52,0
0.0004991123071500726,0.0016603627554357852,0.05943687713252933,0.18156482170067922,18,24,61,58,0
0.0004708252853231927,0.0017054280556604185,0.05753993327533742,0.19587776364063608,24,26,66,64,0
0.00047326578367086264,0.0016156108908447786,0.060397472153214005,0.18239166422408537,22,22,59,63,0
0.0004131823643365247,0.0013705519167392737,0.05535545443153063,0.16036111976297399,24,16,61,69,0
0.0004132229527706716,0.001128844468540455,0.05069018780381218,0.14132398284299982,24,22,67,71,0
0.0003521641074444589,0.0011612303880650097,0.04930334561685098,0.12721786060498053,26,20,70,65,0
0.0003692306275272902,0.0012305797776698483,0.0485828890806853,0.1338888100786891,22,20,77,82,0
0.00038801637322822906,0.0013041198578834482,0.05333845766822882,0.1432393742939673,28,18,74,75,0
0.00038467127946592,0.0016137709310367118,0.05503300816119218,0.16621271395550047,32,22,71,68,0
0.00043219222564071897,0.0015006179577335649,0.05893683783946798,0.16503717865077216,28,24,75,64,0
0.0003992195938694174,0.0016132230437887981,0.05513985390419793,0.17628325608822942,24,20,69,58,0
0.00046295160855080807,0.0013742635011790266,0.061986773002913324,0.1613981793151759,26,24,67,57,0
0.0004509575766706064,0.0011472720739931419,0.0603723900056876,0.14592822997667904,24,24,69,58,0
0.00041973212838857665,0.0013359408934809232,0.0591251862927715,0.15891428896236137,26,26,67,60,0
0.0004338657040938711,0.0011339207981996499,0.06536951799389894,0.13774223051518827,28,22,66,62,0
0.0003574253766854121,0.001395140840235262,0.056945173551399525,0.1493215638912196,28,22,67,60,0
0.0004196947174717674,0.0013451131620867266,0.06018072812587247,0.15664196878575481,28,22,63,59,0
0.0003637989055341424,0.0013593618198641277,0.05114042220127055,0.15200905524849512,28,22,74,64,0
0.00038026892457309594,0.0014049289479251376,0.050965845249698626,0.15335758178578135,32,22,73,61,0
0.000391191035354949,0.0013078148711713157,0.050428504443462814,0.13735502263905675,28,26,63,62,0
0.00033849397006912495,0.0012739546780689988,0.04849926537437271,0.13340928072564792,26,18,72,61,0
0.0003678973235922836,0.0011932293814952233,0.051801999041694136,0.12775012634073876,22,20,78,64,0
0.0005024303081538115,0.0014250765235209303,0.0618201118789616,0.14697666637623125,20,20,68,65,0
0.0005266495315913356,0.0016421889095451685,0.06331113475299406,0.16110808582979194,20,20,70,59,0
0.0006270780618439943,0.0016535806198200024,0.07469285111207144,0.15721850438292073,26,20,66,59,0
0.0005353694070710405,0.002440915452207383,0.07082805528703495,0.20466025182944114,26,16,65,49,0
0.000550677132212286,0.0021209109712865106,0.07370089324060275,0.18664259837040348,26,14,63,61,0
0.0005550258671981562,0.002191351552357685,0.076627993895421,0.19454427129115417,26,16,56,59,0
0.0004901897850821638,0.0021812047087128718,0.07288424010227296,0.20678481788799166,30,16,61,66,0
0.0004906542645029171,0.0017332171217700931,0.0685765141934281,0.1853214674339797,24,20,64,65,0
0.0004796176647037637,0.002098487490733114,0.0741473102673368,0.22402353368128045,22,20,65,61,0
0.0005769437749669515,0.00044675252326167105,0.05481863437053856,0.05035362039507054,8,14,39,49,1
0.001106978672801756,0.0007750454233187608,0.10764650912729291,0.07259933437315282,14,12,47,56,1
0.0015274062872678929,0.0011377278153294605,0.1695107706331466,0.10886548778411667,22,14,51,54,1
0.0021502544557236796,0.0012353293487187631,0.25125782075198766,0.1227988758827838,28,16,55,55,1
0.0019102870129119403,0.001211353365749406,0.2510860761692706,0.11499565873788527,26,22,67,55,1
0.0017398283837172601,0.0012145450066408316,0.2353600922291481,0.13161055701355945,30,20,69,64,1
0.0014406868077935868,0.0010462098913099056,0.2076557216202737,0.12111189094465859,30,22,68,68,1
0.0009942100197813607,0.0009810499841780098,0.14951698178363157,0.12633858860967234,30,20,72,68,1
0.0008471139787273303,0.0010907432159160905,0.1310337180282893,0.1455414039099863,30,16,77,69,1
0.0008104447176531064,0.0010816179717879934,0.1213398521306021,0.14754102537841693,30,22,77,63,1
0.0007808669724776923,0.0010254873247206352,0.11339157459235205,0.13385141416604582,26,26,74,62,1
0.0007504187069799985,0.0012309599628144198,0.11733255237635809,0.13456486918372892,28,20,73,63,1
0.0007952319369877235,0.00108920232546641,0.1212842446047196,0.1255354843169477,36,24,64,59,1
0.000851548370050592,0.000861768895175236,0.1254549725003309,0.10460822998732328,32,22,66,72,1
0.000805456874386492,0.00098790999735259,0.11612496506645514,0.11659274373533403,30,24,66,67,1
0.000850227163760482,0.0009328886697013211,0.11871456694245158,0.10756976186242373,30,24,67,58,1
0.0008172711117729535,0.0008579308840109774,0.11811962156460565,0.10323586196669532,26,20,68,63,1
0.0008589540269655756,0.0010646585133870226,0.11457582596943178,0.11827452859780402,26,20,69,53,1
0.0009067983001338332,0.0010877688296695197,0.116695088817044,0.1278412365621647,26,18,70,60,1
0.0008580217522761359,0.001092577646702132,0.1146239835337421,0.13555012853237797,28,26,70,67,1
0.0008273225774979268,0.0010706910987826738,0.10869918552473437,0.1259989156226633,30,14,74,68,1
0.000763391136220726,0.0011863857523240564,0.10890072537715098,0.1364146823057693,36,22,71,66,1
0.0007125132529525274,0.0010232840157389641,0.1049064729795777,0.11916719413514651,32,20,78,67,1
0.0007301375437818601,0.0010539110894660772,0.10784486543969672,0.11060147736312391,38,20,70,61,1
0.0007486630412806533,0.0011088932181072511,0.11062291550130865,0.12523143722720845,28,24,69,54,1
0.0006957916722551183,0.0008898474899304803,0.10161505260743803,0.10000135503563033,26,32,74,58,1
0.0007781688884289721,0.000979305581574382,0.10783734087485713,0.1149170383097155,32,30,66,61,1
0.0007034988136429067,0.0009637935484088007,0.10083830124674688,0.1095152803255808,26,28,73,61,1
0.0007638939061850543,0.001104156717651274,0.11012982270688428,0.12046455420836308,30,28,74,68,1
0.00094557340053424,0.001247097216268523,0.12568349580873278,0.13357500376353731,30,24,65,66,1
0.0011287896050593208,0.0011237030447927504,0.15239021341657222,0.1307463654948267,28,20,74,69,1
0.001236704939434568,0.0011696048764146664,0.17482475627692595,0.14240987231618799,24,20,71,68,1
0.001236791301090053,0.0010682785845698359,0.17764269969894533,0.13519958806685675,28,20,74,64,1
0.0010953537910829095,0.001115416348652447,0.15597742419169028,0.13451431535636343,28,22,75,65,1
0.0009943757867514368,0.0010679444109242876,0.1475175427233297,0.11892575265738511,34,24,75,68,1
0.0008176857611648567,0.0011139701228458905,0.12207240989796421,0.1218090906603859,32,20,76,68,1
0.0009072173671363349,0.0010240859409423732,0.11653641909988648,0.11690170292540619,28,20,68,68,1
0.0009169735119919656,0.0008966818062013629,0.13528985100857743,0.10954675693478727,32,20,72,64,1
0.0009339340322711609,0.001118598434286822,0.13333472399187085,0.13799220179135077,26,20,66,65,1
0.0009732207105836056,0.0012064061188693611,0.1297277408043961,0.13306156056727222,28,18,61,58,1
0.0009689079111112536,0.001209447825347352,0.13700175229854758,0.12263689026554585,32,18,62,56,1
0.0013113138569732822,0.001381117186018911,0.17357995267386003,0.14303645459296382,30,24,55,54,1
0.001422000578621483,0.001045014676613759,0.18925916985990562,0.11022966658245481,28,22,58,55,1
0.0015523673618893584,0.0011942336081335473,0.20647682178771162,0.12499612682245173,32,24,61,63,1
0.0015219522632520888,0.0013673739874713224,0.19648424825069707,0.13694192967225527,26,26,65,64,1
0.0012078187834884608,0.0011407154821835494,0.1562642688920599,0.12930120622794225,26,24,71,68,1
0.0009206821354088785,0.0013118239260773079,0.11520422917024066,0.15410500374790362,24,22,77,69,1
0.0007545206687171165,0.0012292429284459442,0.11130342403836058,0.15056106011552392,38,22,76,67,1
0.000613369803275261,0.00021133720250566688,0.0793454198156479,0.02633417577555729,22,26,66,82,2
0.0007501782040075676,0.00017147522264028824,0.1105736053113908,0.027667568254967665,30,30,66,86,2
0.001003695028226336,0.00022130698186746892,0.161430823288064,0.03814393234746405,30,38,74,87,2
0.0011817616160209072,0.00025009720498216255,0.19564161586366222,0.0449867702366213,34,42,77,87,2
0.0014444601273795837,0.000269105525190228,0.21355738798564017,0.04704282508833809,30,42,81,84,2
0.0013311208696408082,0.00027665855904557404,0.22440840548593521,0.048310172733924475,38,42,83,86,2
0.0013163508726811834,0.00027022695132376313,0.22092175275232873,0.04552867045223566,38,42,82,87,2
0.0013632686157743705,0.0002703790212212284,0.23344599593884094,0.04581908857057347,38,40,80,88,2
0.001306283737177359,0.00026581026344571756,0.2353739821514626,0.046092786582213864,52,38,80,86,2
0.0013794807517193606,0.0002712726226650353,0.23236764454424416,0.047476420975301574,42,42,80,82,2
0.0013318628048149947,0.00026814624594080904,0.21824967339203627,0.04770349615771971,40,38,79,77,2
0.0010991095809334492,0.00029686104246555173,0.1858261958566416,0.04707657286077626,34,34,83,77,2
0.0011440384229274715,0.00030334083191587384,0.1841156990581893,0.04836787870361196,34,38,77,78,2
0.0010093775722055012,0.0002867719354524156,0.1750022839051695,0.04646146055541012,34,36,77,77,2
0.0010441194528101102,0.00028507296435400847,0.17449982297120759,0.04436900647782092,36,34,80,78,2
0.0010562532573175657,0.0002553980278319679,0.18764345398741744,0.044692513626790956,44,46,82,73,2
0.0010036518659832499,0.000246734044089376,0.17337420981411603,0.04304742244284899,42,42,88,73,2
0.0010486576867793098,0.00026797668049376394,0.17214667202591494,0.046410615821195954,30,38,85,81,2
0.0009088362692714897,0.00029049421079820905,0.1658160936455165,0.04911825325560867,36,36,85,77,2
0.0009041421047100129,0.0002607176215622324,0.1555544215425417,0.044583302664092835,32,32,80,84,2
0.0009007863584369415,0.00024486031615635664,0.15091207346344118,0.04256837985050049,28,34,78,85,2
0.0008187101707054317,0.00022302343563962952,0.1519115546822524,0.0365127556365889,42,40,84,95,2
0.0007892159242775665,0.0001945093253201865,0.14817581040417063,0.033076341711323676,42,32,83,96,2
0.0007272905214332611,0.0002328106061041662,0.14831286242830025,0.03342479081503075,48,30,89,88,2
0.0007390947525954157,0.0002363934493525929,0.1385739866709434,0.03342049696328703,50,30,84,84,2
0.000713197344419441,0.00025445222495760014,0.12577653095233782,0.03356660366420562,50,30,86,80,2
0.000769344970018643,0.00022771266121484436,0.12937137101953014,0.03209875289012434,50,34,85,72,2
0.000719602073779922,0.00019650043538178613,0.12203422642836102,0.030065930185887383,42,32,83,70,2
0.000732080547843303,0.00022079469613435715,0.12916186201832566,0.032610476528962005,44,32,81,70,2
0.0007375943008264412,0.00021197318766602138,0.13034129111155374,0.03405658847886433,46,32,76,72,2
0.000682221859600566,0.00021015404852950815,0.12256872233065823,0.03190836589326115,40,32,76,74,2
0.0007544301650461788,0.00021954353837331194,0.13249277008861163,0.035015588817632726,42,36,73,79,2
0.0007444348839523856,0.00019943213617144666,0.13529612046175024,0.03291971638579042,40,42,76,77,2
0.0007714150379968761,0.00019598400265525044,0.13350731513582864,0.0337334428069678,36,38,79,79,2
0.0007650684517748171,0.00019439147697159054,0.13520789206697603,0.03620486166471088,32,42,80,80,2
0.000749448962223629,0.0002049371182889678,0.13305308683751796,0.03499491989462178,32,36,76,80,2
0.0008593223027967044,0.00020337337955681417,0.1403694924162578,0.03476234482669051,40,44,76,82,2
0.0007591859115086926,0.000207149278402104,0.13103634042592602,0.03495567413654545,40,40,83,83,2
0.0007540221462618074,0.0002167909163840053,0.13259284910087032,0.03602588052104221,32,44,88,76,2
0.0007587906586848156,0.0002411487246109545,0.11192230375008659,0.03370784670949985,28,34,74,75,2
0.0006332074040974358,0.0002300871114206885,0.08888240721921076,0.028155653603300194,30,24,74,76,2
0.0005649540600889179,0.00018807190132854213,0.07508666596777039,0.022540779770306697,28,22,66,76,2
0.0005606332723262611,0.00012653845770011654,0.08355343725588141,0.01941834331669115,28,37,62,77,2
0.0007393730072786872,0.00016774978482411831,0.12329267635022478,0.025710980014001728,32,32,72,79,2
0.0008561219090278664,0.00019688586369058796,0.1492600669805981,0.03423062273492542,30,42,75,84,2
0.0010174689063453997,0.00023154159069202468,0.1796135897758425,0.043080894312561686,28,44,83,83,2
0.0010683341041100316,0.0002775271520362686,0.1932473361223992,0.0500397655123105,36,42,87,87,2
0.001126977159263637,0.00030309296529445134,0.20408965937165052,0.050851023503245815,36,42,79,89,2
0.0002056396597873489,0.0016658436554831974,0.020088141320329534,0.1722287085182469,18,26,67,55,3
0.00021971748483823255,0.00182988503463288,0.02318714483567289,0.20762336465082096,22,22,64,62,3
0.0002830259869044245,0.0017816247109375919,0.029509279239330454,0.24466540314328877,20,26,64,67,3
0.00028103219942824406,0.001967671326464111,0.034066945824099866,0.2986335692734583,24,28,65,69,3
0.00032403410505861194,0.002371518342428883,0.04113333336409426,0.35599227942105266,28,26,69,72,3
0.0003469006778998971,0.0024267460094211176,0.04478777205565542,0.3978309843921616,24,34,66,74,3
0.00033304912052366166,0.0025069909866693397,0.041757529303018376,0.4010170073818125,26,36,71,70,3
0.00034535280344072703,0.002897053392023597,0.041708235434698586,0.4532281100934387,28,38,66,73,3
0.00036614981245425873,0.0028910227243430686,0.0442207683888461,0.4649011099838125,30,38,62,68,3
0.0003770780824920136,0.0031961791575364166,0.04509892439615452,0.4686786909463182,30,30,66,67,3
0.00041992817536986985,0.0031050478624188383,0.049839789282407045,0.47945468153139087,32,32,68,66,3
0.000381769490021542,0.003020080303153745,0.04783027005919005,0.49316941644088624,30,38,71,63,3
0.0004198955342101376,0.0029430158987443357,0.0466661128766685,0.49676555027452984,22,32,67,67,3
0.00039587191373445415,0.002839716633483065,0.04744401209909218,0.47112252611149036,26,32,63,75,3
0.00037989681751743635,0.0031722833432932477,0.047915917444003815,0.4771162902365875,20,28,68,71,3
0.00043465247222463385,0.002905929704180887,0.05287340855248154,0.41847377987793843,28,24,66,66,3
0.00045385676136858123,0.0029330865780191695,0.054162219879166466,0.41549332463398697,20,34,75,71,3
0.0005045837302571867,0.0030007648919077932,0.05623722398977685,0.44281824177799667,24,28,63,72,3
0.000543912570717211,0.0029961894376810874,0.05419568225564424,0.44634655700734804,20,28,55,75,3
0.00047222395933598453,0.002861733332841042,0.04926567479762902,0.4529313788179825,20,34,59,71,3
0.0003976324506433938,0.002539622927165819,0.04365559460283535,0.39754214599785476,22,26,69,74,3
0.00034858800439800913,0.0023993274141085605,0.04150429034277657,0.34928706813221433,22,26,68,76,3
0.00033505898532606423,0.0019096250299205798,0.039402261826081454,0.30956302933673846,24,38,73,78,3
0.0002998446531551187,0.0019219535792832612,0.03672832253800389,0.30466309659313096,22,32,77,77,3
0.0003370008998912277,0.0020742409108877803,0.041684996615624796,0.33654041824004993,26,32,71,80,3
0.00028796759545330426,0.001994222239110595,0.038543159674550534,0.3241779559609814,24,36,70,77,3
0.0003352266497041828,0.0022608419788349367,0.042525123840866375,0.35820979768471783,28,34,72,76,3
0.0003163869820912055,0.0021953319375111443,0.042997827639968476,0.35084281245915583,32,38,76,72,3
0.0002797760028779815,0.0018784649719442584,0.03782095085951191,0.3060098307184346,28,42,79,73,3
0.0002823512611067867,0.001915725809501653,0.03787625844145633,0.3171179931581218,26,34,83,75,3
0.00024436926856203164,0.0016207025037428683,0.03554302917291886,0.27348305199547873,32,32,83,78,3
0.0002690472138321192,0.001524124848274021,0.034979488536704226,0.2467444065132446,30,34,86,83,3
0.00027507832321099036,0.0015200126384124696,0.03403382440578092,0.24341388999573518,36,34,85,82,3
0.00024304389887632528,0.0015246758246846587,0.03324987693884807,0.23597152146461045,42,34,82,75,3
0.00020282295243663685,0.0015300375103777938,0.030343170599940118,0.2286849838321451,42,42,83,72,3
0.00018660425830459122,0.001391556521765535,0.030331925370604466,0.2143609606263734,44,44,77,77,3
0.00017917123400799765,0.00142023432443013,0.03022500698212318,0.2162200770686161,36,40,85,75,3
0.00016380584598930866,0.0012175169622096534,0.030389545216420705,0.19790619665505577,36,42,83,76,3
0.0001870152918467842,0.0011758003816668913,0.032299298260893686,0.1971404357831088,40,34,80,72,3
0.0003941806552330112,0.002472815178590753,0.03814374443047646,0.23334006701350182,10,16,76,65,3
0.0003985767330628362,0.002382138944177539,0.035682282448529286,0.2022350088097658,12,8,62,61,3
0.0003931609078165264,0.0024189927509572612,0.03332428981125452,0.19405127801334132,10,10,63,59,3
0.00021691815438812454,0.001040388256746681,0.02211284663926861,0.13491461744570693,20,22,66,65,3
0.0003083106218005152,0.0016525507539178928,0.03376089314150871,0.2184562705091427,18,24,67,68,3
0.0003521731944693782,0.0020083824176604184,0.04037650992741152,0.28242229166239835,20,30,68,67,3
0.000411725477001198,0.002284053175758603,0.04615149083912887,0.3326352207798691,20,36,66,63,3
0.0003876293345566131,0.0024366286859703943,0.04526438046306921,0.34051573416741643,26,38,68,64,3
0.00033538091250626145,0.002314742954787616,0.041197031462074866,0.34039187534091464,24,38,68,64,3
6.800388451701941e-05,0.00015098166360926144,0.009205459434914957,0.012845912896372722,24,12,76,48,4
8.263950275812771e-05,0.0001727838773918362,0.01046049149673179,0.013717682079039561,18,18,71,49,4
8.066137494473588e-05,0.00015226599633898005,0.010048758496112802,0.012781984518335884,18,14,69,58,4
9.789547306980532e-05,0.00018588677232811828,0.012091022945178945,0.017518287187410934,18,16,68,54,4
9.260401463892635e-05,0.00017027865375363535,0.012245157232803934,0.016983278740301755,22,14,66,57,4
8.744299392406094e-05,0.00019192041385861767,0.011597628600294226,0.01718415341657941,22,16,62,50,4
8.612293648178039e-05,0.0001681689087636017,0.0116586811203352,0.01728581818374636,20,18,63,53,4
9.793441591507028e-05,0.00015312437340131029,0.012022402988426837,0.01628311618315524,18,12,64,49,4
9.695894347512415e-05,0.00016629538149117438,0.011234502606858019,0.01592285651802198,18,14,64,57,4
0.00010487520375749495,0.00015891640838417063,0.012772693062019093,0.015132646303782237,22,16,69,55,4
0.00011871135441767427,0.00015709440259157963,0.014327524295273836,0.014932451847816372,18,16,65,62,4
9.99048985139045e-05,0.00013953296134372041,0.012352268542484219,0.013387137620804873,18,22,66,69,4
0.00011587906668590149,0.00013153075019728738,0.013822292606467106,0.012967123606279803,18,16,65,64,4
9.531420734154571e-05,0.00014901021859003283,0.01232669591656695,0.013782191805322497,20,20,67,63,4
9.338221035746865e-05,0.00013650636706263902,0.01198728076435321,0.014071982590053614,22,20,67,56,4
8.754672655140353e-05,0.00011862383576420485,0.012533677753319577,0.012483558258619198,22,24,69,66,4
8.050349064412194e-05,0.0001479771291273143,0.011451805680045083,0.01492061922599199,24,22,75,58,4
7.052635020126822e-05,0.00013932641958690708,0.009995570624288104,0.012198442279493675,32,24,71,61,4
8.613575910069012e-05,0.00016563284924886283,0.011460193275302268,0.012711138174951387,24,20,61,63,4
0.00010869831080579313,0.00014080165182515258,0.01313651505689238,0.013666674941518981,20,18,65,57,4
0.0001082067315717695,0.00011457867746079657,0.012745691001693541,0.010945392919601206,22,16,61,61,4
0.00013592001266353497,0.00015858111588235225,0.015471842075346758,0.01302476181459269,16,11,61,59,4
0.00011042236886004476,0.00014881122628318652,0.013159143319100392,0.012113925299721424,20,8,62,66,4
0.00010013283431913164,0.00016053038016349675,0.01144076390491632,0.01217169748247056,18,14,64,64,4
0.000108671361554945,0.00017118370986928276,0.013120254703870826,0.013010590174537467,26,14,64,52,4
8.968160627066163e-05,0.00014837683027567195,0.01265757355093547,0.013182943078908693,28,24,63,51,4
0.00010914992752899729,0.00015122079623441538,0.014736650253725165,0.01228474642964367,30,20,65,54,4
0.0002905550856194932,0.0002796597288053212,0.022734635573104813,0.01954810656012399,10,10,68,50,4
0.0007784961140790933,0.0003081876653073511,0.047358305358982354,0.020611476198952195,6,10,45,51,4
0.0008124050853207515,0.0002827231690174992,0.04713208684792519,0.01841648462513977,6,10,46,54,4
0.0006279451814879528,0.00017144363476394184,0.03759308186980108,0.012776242995863102,6,16,66,59,4
0.0006006480753757308,0.0001318119421775575,0.0380466405106274,0.010396689233972483,3,11,58,68,4
0.0001056431423987936,0.00010555899446840615,0.013228115959340274,0.008501535268158692,22,16,65,64,4
0.00011327662806344872,0.00010308810163643026,0.014215689158131315,0.008933884548133401,22,20,68,66,4
9.639815793890757e-05,9.071175813811405e-05,0.013086226600265672,0.007133302720829088,26,18,71,63,4
0.00011415985429311259,0.00010203722940103786,0.01708520214163815,0.00761595049124494,26,17,69,66,4
0.00010210892611477019,9.118611122320104e-05,0.015193913664425409,0.007446884037221696,24,12,76,67,4
0.00011011119237374855,0.00011359319597303993,0.015695345841002052,0.010232574991892746,22,18,62,59,4
0.00012154004917748503,0.0001866586555562415,0.016457134145865554,0.012730258487931696,26,12,62,59,4
9.563742317548e-05,0.00032830897484249116,0.01336215189870219,0.024988753743129123,24,12,66,51,4
0.00011896992969260177,0.0004265104347417622,0.015866152286118988,0.033720563986956574,28,14,65,50,4
9.818540093808886e-05,0.00045776807616,0.01263266075382038,0.035365721859608,26,16,67,48,4
0.00010743653578502605,0.0004555623473095258,0.014229263949414438,0.037031710708521494,24,14,66,54,4
9.8450687065704e-05,0.0003306111093967619,0.011377383574292082,0.02805976475528694,18,12,62,47,4
7.290768248168579e-05,0.00021178165148161992,0.008327599341268914,0.01874060326534899,20,12,62,51,4
8.598942394471625e-05,0.00020422898055042944,0.010678591658946001,0.016597991754142043,22,14,69,49,4
7.803992629895178e-05,0.00016619750932083438,0.008983688745876899,0.013122690396316113,16,12,71,60,4
0.00010481830896863789,0.0001473988945691511,0.01212040759614413,0.01296008671195629,20,12,67,56,4
0.0005843454542645613,0.0013851707399593302,0.0770278880323937,0.15460401923491063,20,20,67,67,0
0.0006746764465272392,0.0016729890570511092,0.08294120708212306,0.17341275700696057,16,20,63,65,0
0.0006259875120178649,0.0017246807335707078,0.08300341976310313,0.18216704462530606,18,24,61,66,0
0.0006284627206035564,0.001813768918514602,0.08365120450288603,0.18985164719431227,24,26,61,61,0
0.0006020338335183977,0.0018348565759822842,0.07954992592493548,0.19649489645670293,28,20,55,65,0
0.0005399871076905461,0.0015800757111862557,0.07883684845893099,0.18413468739875857,30,26,68,64,0
0.0005626459366316473,0.0019184332002693868,0.07694394961452974,0.19735934941695593,26,20,69,59,0
0.0005666773521837285,0.0019395263582795074,0.07705230382559383,0.18870969245086447,20,20,72,59,0
0.0005902813818821237,0.001871588761422285,0.08044896965765945,0.1734083612238131,24,22,73,53,0
0.0005746178032555857,0.002002627278434523,0.07856921063353248,0.1859405830763336,20,24,69,55,0
0.0006136701163476951,0.0018406610711128102,0.07993142154781933,0.18312071721386589,22,24,67,50,0
0.0006505378815181824,0.0019333862016508044,0.08266363391358691,0.20755188092351337,26,22,64,56,0
0.0005851729668441863,0.002199158864931211,0.07435354105254048,0.2106967168418474,22,22,65,59,0
0.0005751162879627402,0.002288623450912017,0.07254158697886132,0.22509583570283434,20,24,66,59,0
0.0004763760576129861,0.002086487298501102,0.06492496450146572,0.2081253876345548,26,14,70,58,0
0.00046792116655244316,0.002223239461836715,0.06714273921426075,0.20421596929722985,26,12,71,51,0
0.0004649515710558743,0.002193029321861654,0.06860901505492283,0.21770340650849662,28,16,64,48,0
0.0005122478508793914,0.0018768636947624543,0.07261336067280183,0.21199070834693168,32,20,65,54,0
0.0004875585108261471,0.0017681720520151764,0.07323801881808614,0.2063437480425702,30,22,70,57,0
0.000433193489473583,0.0019074032470357096,0.059933247481737104,0.22154083455332807,22,22,70,57,0
0.00046729576162729645,0.00154395356440065,0.0666378664875687,0.18754354403015153,22,28,70,59,0
0.00041254748565251807,0.0016426027493448856,0.061279185549990886,0.18947852705375734,26,20,67,62,0
0.00047898374813596067,0.0015597564554704919,0.06804791563332242,0.18396310599648022,26,20,61,65,0
0.00043872496950220116,0.0013799404396922022,0.06562932015401801,0.16763977811778125,26,16,60,65,0
0.0004298127581569986,0.0013141362367969337,0.06450596616984185,0.16465398586567587,28,20,61,68,0
0.00045697364575106113,0.0014635966543449857,0.06260119127436367,0.16478752102440186,22,18,63,74,0
0.0004958721661781516,0.0016857533753895338,0.05733726255189108,0.17368087654554978,20,16,59,65,0
0.0005145135570772801,0.001600475318001939,0.06495027031927837,0.17779083443777194,24,24,70,61,0
0.00048393439155820154,0.0016707903345897581,0.05864927876158409,0.18481265462046834,24,24,64,56,0
0.00048622341565030306,0.001427757006618144,0.058543047669585895,0.16636901794046197,24,24,69,55,0
0.0004331442815378019,0.0012794020375157436,0.05836359303193665,0.1535471214570205,26,26,64,55,0
0.0004415520496694225,0.0012096850638310614,0.055208832922594396,0.14855557418947268,24,28,66,57,0
0.0004394186370728086,0.0013699162156240994,0.05273140482337507,0.14993730009766637,22,24,69,61,0
0.000479214349014108,0.0014044338622868843,0.059442696135483815,0.16340923047077208,24,26,67,61,0
0.0004732309326048112,0.001475189241954011,0.057465852982101634,0.1685773332091722,24,24,65,61,0
0.0004134406394447958,0.0015954408377042767,0.05448851526569266,0.17381413120748662,24,20,70,63,0
0.0004724854258159645,0.0015180939401909573,0.05766607121962696,0.16668556903639595,22,20,72,59,0
0.00036751631318320785,0.0015718409979028202,0.04568202574513812,0.1661059255453373,22,20,73,59,0
0.000375957967259304,0.001529883634434078,0.05142624166009331,0.16179443615539957,22,24,73,63,0
0.0003272656934174945,0.0015379125727232948,0.04650901627462475,0.15601067810847608,24,18,75,67,0
0.0003173692859750542,0.0015700692620523534,0.04939191306842387,0.16064848837661896,26,16,76,63,0
0.00036888143548593556,0.0014466970107079185,0.05296298516108019,0.1536706360053167,20,14,77,65,0
0.0003504203060078429,0.0014512493891584053,0.04836466612162433,0.15503309903915188,16,14,78,59,0
0.00038183533583449473,0.0014739380091539267,0.05262874129310256,0.1523113091092385,20,18,76,59,0
0.00037812738473659894,0.0012370567898812752,0.050448235983981154,0.14309559984768977,24,22,75,65,0
0.00038064092272935876,0.0011995994717034846,0.05474487083114438,0.13846803489782972,24,24,76,67,0
0.0003426933914947875,0.0011561245928435808,0.05109850754070878,0.14056609969003764,30,26,76,68,0
0.00030613643652827857,0.0010491837906928484,0.0467257858965394,0.13574016745877526,30,32,75,71,0
0.00028100520593303416,0.0013526075718321695,0.04543171300250622,0.15831725465943433,30,22,76,70,0
0.0008025581010865522,0.0009032762343598297,0.104055793567793,0.11225170225255875,26,20,76,65,1
0.0008488753759168348,0.0009099711636298814,0.10326854891210123,0.11569175553418921,24,24,73,63,1
0.0007810713264882815,0.0009025362838788613,0.09728912236625925,0.11414753119266592,20,20,75,61,1
0.0006890601436701592,0.0009089027327670568,0.08823695906199913,0.10886502531049232,22,20,71,60,1
0.0005574247205051426,0.000908043654276128,0.07730388150358569,0.11722289539323838,30,20,65,61,1
0.0006253148108962043,0.0008478997741636911,0.08933633949183775,0.1068544669938058,28,20,61,56,1
0.000657869671120445,0.0009802427810615415,0.08841061614337624,0.12322259731462197,22,20,61,60,1
0.0007713927555835106,0.0010111052738335901,0.10143695775970656,0.1214039050223577,20,24,60,58,1
0.0008573073145114749,0.001048161415331456,0.11941755771702488,0.12062782706215472,20,16,66,58,1
0.0007062978686270994,0.000990779854191868,0.09611044253487509,0.11195938954337253,20,20,69,61,1
0.0006748673447445058,0.0008491132663798508,0.08721410437303874,0.09171925230887583,22,18,68,60,1
0.0007930963794010291,0.000739064670176762,0.09819062589031671,0.08016417673166408,18,20,61,66,1
0.0008657959668278995,0.0007216336066513699,0.10980957426776795,0.07797841763031263,22,18,70,61,1
0.0010612148652428255,0.0007261798773498478,0.1312324784874891,0.07661556067362858,24,18,72,67,1
0.0010912363250522232,0.0007009164850535453,0.1365330344523421,0.07814154216013963,24,24,61,68,1
0.0008438333703609483,0.0008257930348730962,0.11272046320198875,0.08522523904550099,30,16,73,70,1
0.0007123010031875081,0.0006633903249550036,0.09481033196067908,0.06952223055082546,36,26,68,66,1
0.0006570875818905819,0.0008424786488077573,0.09254814844997149,0.0941301729287745,30,24,69,59,1
0.000713364938514273,0.0009032256018783863,0.10073354345151057,0.1051377111335725,28,24,72,58,1
0.0008108747010589387,0.0009587735248888511,0.12575952705384982,0.11300125685065712,30,22,66,61,1
0.0009113855509955049,0.0008669672337706465,0.14115437875342338,0.10383314284017389,32,20,64,61,1
0.0009808413324324168,0.0007710392819681584,0.1523529041572231,0.09215726296706683,28,24,62,64,1
0.0010238660563285497,0.0007485950865654685,0.1564434223450154,0.08553742332226369,30,18,61,66,1
0.0009578095908167109,0.0006404973073041168,0.14266866506101641,0.08446277877726462,32,28,66,63,1
0.0008895836800513305,0.0006816107400495762,0.12713980963133195,0.08433512867942149,34,28,70,67,1
0.000903742545026755,0.00063352701619919,0.1221887878330102,0.07922774976476712,30,28,77,67,1
0.001055132267009023,0.0009014907771595747,0.1302911284719485,0.09508218038072964,26,30,73,62,1
0.0009413569315088009,0.0008248088068703971,0.12809765634837408,0.08707507362538755,26,24,75,65,1
0.0009095063347760604,0.0009478543033971591,0.12980390300119665,0.09465084735020421,30,18,71,63,1
0.0008592818454967989,0.0009830584241040964,0.13105422969492608,0.10007186917608749,34,16,74,61,1
0.0007844091008204158,0.0008262912277345838,0.12281004595035083,0.09361676527875763,38,18,71,66,1
0.0008809130545536504,0.0013209298374696023,0.12751422059889952,0.1320295197789486,34,24,66,59,1
0.0010631029786724964,0.001367039061593669,0.1217455558687076,0.16286218558827856,26,18,65,56,1
0.00116785713578416,0.001521857922615469,0.1280258491488501,0.1860170664311043,28,22,61,56,1
0.001133542173383738,0.0014528440140200924,0.12960504693556013,0.17774024419872958,20,20,65,60,1
0.001070282234639672,0.0015781030436174473,0.12992580151519184,0.17325235795589172,26,16,68,62,1
0.000956057828202415,0.0014729881188504997,0.14001119498160877,0.16770475286092099,26,22,75,61,1
0.0010550585256872747,0.0013833221656276446,0.14398855025230817,0.15794526993770536,28,22,75,61,1
0.0009593296028758251,0.0014988700921007303,0.14659796343533027,0.17164135201089592,24,20,76,58,1
0.0009837224551941751,0.0013831152677721377,0.14359739243582606,0.1576922944914861,24,16,75,62,1
0.000966358142883112,0.0012850354361580681,0.13765913700840843,0.15969602018667764,26,20,77,67,1
0.0009203328490392718,0.001456025892332368,0.13513140022286257,0.1651256403584583,36,20,81,66,1
0.0008834484311070219,0.0014629412389620985,0.1310498676117149,0.17097641288877088,32,24,76,64,1
0.0009923519500720963,0.0013201681156916976,0.1424275600959774,0.15351697329979877,24,24,75,71,1
0.0009429186004821762,0.0013550709802985744,0.13145216744980662,0.1537335104916294,28,20,71,64,1
0.0010940362909678412,0.001240943509776359,0.13940629067666782,0.1396073274937785,26,18,69,61,1
0.0010545100425461535,0.0012215267654738517,0.13772371827149232,0.14119916478930225,22,18,69,63,1
0.0009709983094472097,0.0014150195371347332,0.13037239720593521,0.14006639101744242,24,20,71,54,1
0.0009495865545222435,0.00146422156750356,0.1291641518264159,0.1486335470837392,24,16,68,56,1
0.00082666334079341,0.00022804968281268454,0.13947131173589297,0.04467253770297379,32,48,87,89,2
0.00079841036084858,0.00023244488776329918,0.13613555537018068,0.04405434835564363,36,38,88,84,2
0.0008763785921455178,0.00023558713814882714,0.15121772748559492,0.043265855318112424,36,40,89,88,2
0.0008529655154547556,0.0002633485737124106,0.1487336506949939,0.04626955075174187,42,40,83,86,2
0.0009007892267692798,0.0002686080318804118,0.15869543452833662,0.04853368128580761,40,40,90,85,2
0.0009089236909026661,0.00026801537360073783,0.16133541297699341,0.049461620695797806,40,44,88,91,2
0.0009092678305152884,0.0002446830983659238,0.1543611191202695,0.04553736749272196,32,40,83,91,2
0.0008436406843537757,0.0001942733169630579,0.14784691981757428,0.03802840453977455,40,38,82,96,2
0.000858825885209726,0.0001766982246019589,0.14281544225252754,0.031061297156131967,38,42,79,92,2
0.0008003128615083269,0.00019109703855024724,0.11582308672874786,0.02667047424210816,28,28,79,86,2
0.0007389185764894142,0.00023034108473085505,0.10799692845768907,0.02793606341002248,34,18,84,69,2
0.0008948323425342687,0.00023190156292466672,0.12125461230977953,0.02830707382300002,28,32,68,68,2
0.0009356077013787994,0.00019461260900509615,0.13452052370943549,0.029277924663428892,28,28,70,74,2
0.0012273077448355305,0.00022575249528433505,0.18994882820983863,0.03712258545691179,30,32,75,77,2
0.0013277528895816685,0.0002070811926313368,0.2100143098376547,0.03666146484416324,32,46,73,86,2
0.0013078485120349554,0.00022165595362868399,0.21109387306149144,0.04082176587085797,38,40,76,84,2
0.001285023489858429,0.00025807709612194195,0.21779079100770313,0.04521611935569395,36,28,81,90,2
0.0013237294559030252,0.00027679104759803725,0.21818767339928688,0.048631164717370425,34,30,76,94,2
0.001294199353199859,0.0002751786045174926,0.22084527512320476,0.049553949841497115,38,32,74,91,2
0.0012730052304872298,0.0003000656840507736,0.22370544489962657,0.05168513042655457,40,36,75,94,2
0.0012353663645797133,0.000232202597787257,0.20567731179054427,0.045381447264390834,32,42,73,92,2
0.0011171187596847904,0.000220527781761196,0.17779617699487552,0.042104003954146124,30,46,77,94,2
0.0010417670113481397,0.0002090348623768323,0.16493152662509386,0.04144722022168852,36,48,77,91,2
0.000996504629929854,0.00020085059620286413,0.1558244182720108,0.03830147883645895,28,42,84,94,2
0.0009000171439348505,0.00018794194998611954,0.15406542627830142,0.0378089435189802,30,40,90,92,2
0.0008713890972223503,0.00017555996782208792,0.15118434500678193,0.034239941212753346,34,40,91,86,2
0.0007933251394776895,0.0001757009647265796,0.14089889009441217,0.03331684533995348,32,36,93,91,2
0.0008196256381574941,0.00017518071294222396,0.13291295257986177,0.030815819634846187,32,40,86,91,2
0.0008400576801320313,0.00019001001815365954,0.125760526340741,0.032836982200716555,36,38,83,90,2
0.0008822324515761711,0.00020406175265189413,0.14135795805974055,0.03711400381490618,34,46,80,92,2
0.0008710709280052688,0.00019889083564054438,0.14436637066334593,0.033796090981383746,36,42,76,95,2
0.0008033605061982127,0.00019729629098499873,0.1452139799742067,0.0341139400326781,36,38,82,95,2
0.0008369750257408432,0.00021040439092035387,0.15682431602152552,0.03543507946729747,36,38,81,92,2
0.0007572043144158305,0.00018361957222682646,0.13768875046085963,0.03205400708622433,36,36,85,94,2
0.0007597454135161783,0.0001781412904473451,0.13508615046925132,0.034164243437765314,32,44,82,90,2
0.0007187860071678988,0.00020117836009335963,0.12990604723764532,0.03639441484830344,40,40,81,89,2
0.000694626754925873,0.0001816952216212325,0.11674939364823522,0.03241416598646736,38,40,86,88,2
0.0006789139109401498,0.0001973218073280756,0.10925002629598198,0.03160488514681367,38,42,81,83,2
0.0006890917853762112,0.0001907291181874313,0.10394356670972547,0.030229514744205436,40,38,85,84,2
0.000703464953966777,0.0001745387494291572,0.1096526622836844,0.02936936640159782,40,42,87,82,2
0.000747294551359857,0.0001717722041565416,0.12033430701774772,0.030458120873072037,34,44,84,77,2
0.0007975912023686139,0.00015185269945019807,0.13561680788689834,0.03016718386080558,32,48,90,84,2
0.0008494293006407587,0.0001558921169133789,0.14394071838076472,0.028784034799414337,40,52,86,83,2
0.0008542312409081699,0.00016220370208603965,0.1483924313969477,0.028505985787562662,32,52,84,84,2
0.0008401058070601823,0.00016420958806020368,0.14683990938801875,0.029321158826202225,36,46,79,86,2
0.0008367849795544421,0.00017540027037358995,0.14281885068941072,0.03199042550264312,40,44,74,85,2
0.0009068017262749724,0.00019871708177425718,0.15499367681255655,0.03599109121154019,34,48,74,84,2
0.0009505579716340591,0.00018986155478653913,0.1635508145418333,0.03513314301908588,36,46,74,86,2
0.0010964045342137909,0.0001964920778149966,0.17982858906641583,0.037465807676707194,38,52,72,82,2
0.0002964716782951437,0.0015072769656682098,0.035318178987394214,0.2607250140176402,28,36,73,72,3
0.0002644763438374629,0.0016634408398511662,0.03478395359903926,0.2655842477724651,32,38,77,70,3
0.00023193882854009035,0.0017135667097740222,0.03419816339707793,0.25205834189306325,34,38,82,66,3
0.00020367452510798437,0.0017127253612504575,0.03342191652446366,0.23395028706888726,38,32,84,62,3
0.00021335478808296598,0.0016337875006480354,0.034493633572820585,0.2397718412098981,34,36,85,69,3
0.00022384080148077308,0.0018659563809642285,0.03533486411088632,0.26063019934700987,34,38,83,72,3
0.000249808823376629,0.0018455564200726136,0.037256235115546,0.27058624453226154,34,36,82,75,3
0.00026469890183305084,0.0019324406198567895,0.03972651007447963,0.2762327499656602,36,34,77,77,3
0.00025962436872797504,0.0018286293526379855,0.03849118121080473,0.2875511406827093,36,36,74,73,3
0.0005559306379986299,0.003380156650866577,0.048203513108596885,0.30411212753577604,18,16,76,75,3
0.0005253536513416828,0.0030959822286827973,0.041996521028852984,0.27628463241566464,10,14,76,65,3
0.0004959136264357409,0.0035353959559082217,0.03803222819914824,0.307733010255063,8,14,69,57,3
0.0001553432724426156,0.001665310905525486,0.02098548839579756,0.20541068602136292,26,24,69,53,3
0.00019441191329759444,0.0020037990837648107,0.025694432099484712,0.2580435424927268,30,28,66,53,3
0.00023069826181442384,0.0021648104126756568,0.02874625899440728,0.2918256494198056,20,34,65,61,3
0.00026991976567820636,0.001759091857151243,0.02950727128068473,0.2565381803382787,24,38,68,73,3
0.00027548014983223607,0.0017900924631863821,0.032388150995177195,0.26543786708340183,23,36,68,74,3
0.000290918044169369,0.0018235546018353303,0.03252855750814596,0.2785514512619609,22,32,69,75,3
0.00030107115038936804,0.0018780730232555837,0.03514141526817602,0.2814541721718578,18,36,68,71,3
0.00033785035549343373,0.00185142488932373,0.039347719894164954,0.2617498511932359,22,30,68,68,3
0.0003337453193070661,0.001743548343512115,0.03938008659611275,0.2615444777746156,20,30,68,75,3
0.0003891538709305286,0.0016200117359576097,0.0418295359260004,0.2501819516995707,20,36,64,80,3
0.00039607147626465717,0.0016821805750995905,0.04050594692345778,0.28457680961537535,20,40,58,75,3
0.0003728262123299195,0.0017261134437133768,0.03857700791829598,0.3034111537805549,22,36,56,77,3
0.000279963650973447,0.0017773324056629396,0.03522006995527957,0.30786243451102346,26,40,63,74,3
0.0002762674285736944,0.0020860583554446876,0.036815020307092605,0.3266610377831278,36,34,60,71,3
0.0003084118807904256,0.0018466115737502038,0.03650093969437013,0.27903558368928516,34,30,58,70,3
0.0002908422977134578,0.0018684603024866251,0.036530509155195005,0.2765761424823388,28,38,60,70,3
0.0003460855759071865,0.0018087128296255292,0.040978403694007855,0.27725908389935244,26,38,59,72,3
0.000344863246209567,0.0015677105725843596,0.039014183006561405,0.24972348025811864,24,46,64,80,3
0.0003114953897278694,0.0015759003201444703,0.037811990641197564,0.2534139869183817,20,42,71,78,3
0.0003246767682845802,0.0015168998077248108,0.03850482715549595,0.24500486227669915,20,42,72,84,3
0.0002855674276624139,0.0015410347813720477,0.034391780726340915,0.23285349416149437,22,32,76,81,3
0.0002885114256779866,0.0015811026157637046,0.03581032824028464,0.24111826530480726,24,34,70,78,3
0.00030365782412033023,0.0014529479530219897,0.035217546342621434,0.23767978015104396,22,28,72,87,3
0.00030951605033686756,0.0016771544265995139,0.0340802835020904,0.25734994605739636,22,24,66,80,3
0.00027089860591973766,0.0015180042920982626,0.03271603811612891,0.25402316950778353,24,30,62,83,3
0.0002841932507457965,0.0014649037580639756,0.032712761790483665,0.23823183535705963,24,32,63,77,3
0.00026905448040355474,0.0015310536039489966,0.03660202246497481,0.2410669265334115,26,36,70,72,3
0.0002739827655964784,0.0013114145274061818,0.037960488612147306,0.21010497609075598,28,32,71,77,3
0.00024220104851653632,0.0012168428132941398,0.03721602618021048,0.1919789851351055,26,34,76,79,3
0.00023175852488252046,0.0012678023227578538,0.03447003476883179,0.20548587938984017,24,36,72,83,3
0.00019802456132511683,0.0011408756916164295,0.03158533696090472,0.19809400271751726,36,40,71,79,3
0.00018860145109842654,0.0012557970292853366,0.02928909736594303,0.2070219343534582,38,38,69,73,3
0.00020500092422329506,0.0012526659081134575,0.03066321555827294,0.21480009274844256,30,34,71,75,3
0.00021553881403068317,0.0011973047158854247,0.031283570456445774,0.2038842626273917,30,34,67,78,3
0.0002116897465996351,0.0013405902688010225,0.02877202213078644,0.2137250979235861,28,32,74,73,3
0.00022469123746143448,0.0013271395639849225,0.029939797489843864,0.21963081512114718,36,34,81,74,3
0.00022201220509228016,0.0016373725270259385,0.028220564860796278,0.24331960868579405,36,40,79,71,3
4.040218475329927e-05,0.00015544393260882159,0.005341501914353663,0.017027640512650433,34,22,70,60,4
4.111238420398153e-05,0.0001640017896337485,0.005034905809036445,0.0172141185995429,30,14,71,56,4
3.789827340395112e-05,0.00019381844417294344,0.004963397435998992,0.018451535041090192,30,18,68,56,4
3.64687781252593e-05,0.00016825048198969232,0.004781147211675388,0.015554788409041575,30,12,63,57,4
3.425943236585668e-05,0.0001611808819402801,0.004922175737695758,0.015746257935680016,38,18,66,55,4
3.532996287435025e-05,0.00016688181392791296,0.004977140729797111,0.015601221696946999,34,14,67,54,4
3.470803465609679e-05,0.00013820312089369777,0.0051446881915184085,0.015582870474913748,36,22,67,63,4
3.776855353379415e-05,0.00014502568469500608,0.005086277637441148,0.01621803488290347,30,24,73,62,4
4.012027546681675e-05,0.0001334967122487764,0.005057881538604864,0.016171112718587993,30,24,80,62,4
3.534714143553274e-05,0.0001415952412522073,0.00496982394300474,0.015359550438864606,30,22,75,58,4
3.4637640087697114e-05,0.0001384645753628145,0.004849654546339114,0.015148425872175478,38,26,75,60,4
3.2581878725765226e-05,0.00015143168562869823,0.005098059373490959,0.016310403770587123,42,26,66,54,4
3.61808374422544e-05,0.00014782160286010463,0.005074576096974149,0.01509760194802701,36,20,61,56,4
3.7651626358044305e-05,0.0001865773461434096,0.004908153404115112,0.017595016602477403,32,18,65,57,4
3.689378011498338e-05,0.00021136003197588297,0.005080528484810729,0.019992296674474695,30,16,64,50,4
3.530987554336866e-05,0.0001792531709208986,0.004803402358490443,0.01704243432251895,32,18,63,65,4
3.7086674514021816e-05,0.00017613321302298334,0.005091249771039451,0.01756282416838192,34,18,69,66,4
4.191620746626315e-05,0.00014817399698171038,0.005463921090736068,0.014504615080233336,34,18,72,64,4
0.00022546826864263203,0.0002253164229811112,0.014013589016230598,0.020777142456902962,6,12,50,68,4
0.0015860005870093096,0.006164523592714572,0.09045914881643885,0.35552852976686905,4,4,62,69,4
0.001679702758657396,0.006520714309976114,0.09250702975471578,0.36301088518596725,4,4,76,74,4
0.0015795155473610914,0.0064694966790133125,0.08569743794237117,0.35099442398879566,4,4,58,60,4
0.001477657130753021,0.006050709794945533,0.08193087656721437,0.3334116340012123,3,3,55,51,4
6.429264928049412e-05,0.00015430933150152547,0.007608604639795806,0.017672917023556788,28,20,69,61,4
6.3482809820288e-05,0.0001476198629898328,0.007338081076608656,0.017424011940684152,26,16,74,65,4
5.234117090261428e-05,0.00018695996107224644,0.007782923512339625,0.019677844659748287,36,12,75,69,4
4.852768263915347e-05,0.000192789142852319,0.007080402908214465,0.019332902274798565,32,18,81,68,4
4.855448566100609e-05,0.00019552123375627748,0.007626994710625774,0.020229557510035467,34,14,76,70,4
5.130116213369936e-05,0.00021077629665219082,0.007731802238059018,0.02038879631851347,32,16,76,59,4
4.5031764642490394e-05,0.00018713427061918628,0.0076855932642195075,0.01989897275474385,36,18,77,66,4
4.949692800814367e-05,0.00017271987622990452,0.00811504616036015,0.018121225969279703,34,16,77,69,4
4.467365572222779e-05,0.00016764740181056978,0.007348958735131734,0.017829822047040055,42,16,81,58,4
4.227502253222278e-05,0.00015674654938974887,0.007472352371101191,0.016696491942226627,48,16,77,55,4
4.283970567009359e-05,0.00014840411225480906,0.007057463452167864,0.016580371494218482,40,14,79,55,4
4.9300590071466134e-05,0.0001647591935958479,0.0077818270784857525,0.017685949983634534,38,18,83,65,4
4.3621396736505215e-05,0.00015236628783965134,0.007932135281263174,0.017976276367398084,44,18,81,66,4
4.362173224406721e-05,0.0001475322960280394,0.0078067160182553625,0.0181471063637478,38,22,84,72,4
4.629147366507767e-05,0.00014446802078942254,0.00814825650363491,0.01578030996912319,42,18,77,71,4
3.828108435676391e-05,0.0001634155575312919,0.0069047876704105135,0.01637850857184457,42,14,78,67,4
3.900333904172455e-05,0.0001694686047757835,0.007025820211912901,0.016421287986751347,42,16,78,74,4
4.3626368451019625e-05,0.00017087409160935953,0.0072164762619540595,0.015401510704986101,46,16,77,69,4
4.406074374473438e-05,0.00018690950522528473,0.007253253590644604,0.0170046385717076,44,16,78,67,4
4.826594996831525e-05,0.0001465964626785415,0.00792257300724604,0.014839959817346296,46,20,75,71,4
4.5796661640024405e-05,0.00012384745389751133,0.007658509221445628,0.014558027861104475,38,18,80,74,4
4.751641631063372e-05,0.00016534868969938994,0.008199878162840357,0.017962184407914823,42,22,73,68,4
4.924744214058096e-05,0.00016157647965394178,0.008105670711204223,0.01751395645653322,36,16,79,76,4
4.580995270746405e-05,0.00017288752780937445,0.007816529610044236,0.01827172587890936,38,16,81,71,4
4.6547893693553636e-05,0.00017461583343074305,0.007781622056007602,0.01756426871535638,38,12,74,67,4
4.2840453926650726e-05,0.00013585030427002643,0.007114619041007073,0.014641236711078417,40,16,77,69,4
0.00048777680968652056,0.0019569210284417983,0.07334741829481493,0.21365346324787016,16,16,66,52,0
0.0005023883967468832,0.0020490484349728042,0.07094505388887054,0.21422086905890855,18,6,66,55,0
0.000545889061163587,0.0017718105889916688,0.07982474370976081,0.1876720058815034,20,11,73,58,0
0.0005050176924835567,0.0014910748836408627,0.07312170438048961,0.1582087550262755,24,18,72,61,0
0.0005520215184648766,0.0012543305459044288,0.0817897831774244,0.15240611552411676,22,16,72,72,0
0.0005003344619832659,0.0014960172474949107,0.07463694279980435,0.1581310680273287,20,20,73,68,0
0.0005759599582787858,0.0016816115531545464,0.08569413140458074,0.1594854358352986,20,18,68,64,0
0.0004996326240150983,0.0017238710155621682,0.07886562511892066,0.1593763310415645,16,18,75,60,0
0.00045705613230781304,0.0016566394776776124,0.07281654029230891,0.15595114079293212,20,16,76,59,0
0.000540572272814379,0.00140472778509875,0.08399633433740969,0.15364992494431715,20,18,73,58,0
0.0004772448333173484,0.0011520859010485018,0.0729171710757025,0.14501929126493956,18,20,67,62,0
0.0005320593869735264,0.001125945719387906,0.07667643262120709,0.1391327406127862,22,18,62,62,0
0.0005801037510168966,0.0010824137549740008,0.07560430218805017,0.13366605297754414,24,24,66,68,0
0.0005220218250861655,0.0010720854659419677,0.074337454257595,0.13462511554720064,28,18,61,69,0
0.0005284673229932413,0.0011400528924541116,0.07400591890818035,0.13514480809596638,22,18,63,65,0
0.0005456179721160731,0.0009998124570423689,0.07209412187422592,0.12536268294405017,20,18,70,68,0
0.00047664740959027144,0.00103370684921538,0.0723086748192617,0.12491305298876425,18,22,67,72,0
0.00048485892354817344,0.0009829766249449161,0.0684393748399125,0.12063914606984169,18,24,73,70,0
0.00047128332535269907,0.0009263059261730191,0.06430831921706141,0.12219499280917831,24,26,78,72,0
0.00047214397901122626,0.001015342358196813,0.06661725714108045,0.13232257393828248,22,22,72,67,0
0.0005224865938203267,0.001056146474238514,0.06795930260105304,0.13797559496026535,24,16,77,61,0
0.00046668641291849715,0.001029775194955973,0.06418668521974773,0.13447806080213626,24,22,78,61,0
0.0005955928767633032,0.0011759916604507357,0.07707890850355449,0.1519376896899602,26,20,69,61,0
0.0006073556480155143,0.0011938421860285232,0.07565593845118547,0.14769682812850815,22,20,69,63,0
0.0008084773508493094,0.001395106529662113,0.12021579734127338,0.1719534123095996,8,14,74,63,1
0.0009080287545576348,0.0013979190373797023,0.12934849804942178,0.16720159526542638,14,12,73,68,1
0.0010292666765357103,0.0015058819729517295,0.146970208823135,0.17265089423873045,22,14,72,70,1
0.0010393942545252762,0.001472418571975819,0.1454656638111115,0.17201952893901656,28,16,69,74,1
0.001068961885215808,0.001175959076707402,0.1391149628032243,0.14017809045601667,26,22,62,70,1
0.0010288286925966286,0.0014555729600091822,0.13270131376498098,0.16450987761565114,30,20,67,73,1
0.0008875208300252185,0.001095891250701463,0.11570647276355998,0.13001617995563108,30,22,63,75,1
0.0008257870870720198,0.0012331498789381829,0.11083226227204702,0.14205720067563388,30,20,66,63,1
0.0006994314865651245,0.001287988327117123,0.0973978284798264,0.146931012607327,30,16,73,61,1
0.0006701407447615705,0.0011607656702623814,0.09247280948887304,0.13030840883224962,30,22,73,64,1
0.0006511357300456309,0.0011375501048938453,0.08824606807994587,0.13604335299755732,26,26,81,55,1
0.000720262856990288,0.0011297744900651537,0.09776216874758194,0.13586844005056986,28,20,75,62,1
0.000755273587108104,0.001197409285050006,0.09815750027195666,0.14152065424368152,36,24,73,61,1
0.0007166807019049497,0.0010393731896976173,0.09288045059068106,0.12479219393922508,32,22,77,64,1
0.0006944583756178749,0.0010292428197323886,0.0950765167022382,0.13008713894024349,30,24,72,70,1
0.0005825847977146998,0.0008893382187629265,0.07954995858055004,0.11724696915876148,30,24,77,75,1
0.000588622856129771,0.000772870430293533,0.0843452635073489,0.10132285464176347,26,20,74,78,1
0.0006348458822985864,0.0008452071579008823,0.09480315640591633,0.11522705454178174,26,20,72,74,1
0.000625741622032797,0.0007309415071655001,0.08832244570168102,0.09516499144770223,26,18,71,80,1
0.0006758748997689196,0.0008159834988623199,0.0970008476654718,0.10513965928333491,28,26,64,85,1
0.0007204306933311776,0.0008111956707390848,0.10264906884955795,0.10313788290562503,30,14,65,76,1
0.0006816706136030007,0.000761404361288958,0.09483117662599515,0.10046281553386062,36,22,72,76,1
0.0007241436590187478,0.0007848808195156479,0.10178392424206742,0.10553178627802944,32,20,75,73,1
0.0007229909449948989,0.0008544452862110719,0.10543225619383208,0.10483317151076041,38,20,77,70,1
0.0010910593454162593,0.0002912818940354179,0.1990429540019869,0.05207279722957566,22,26,79,83,2
0.0011055563845708653,0.0002656481242849406,0.2005183006927412,0.04783600780019311,30,30,80,88,2
0.0010446183673687968,0.00026280931989036677,0.19282033363802417,0.0463910070703796,30,38,81,85,2
0.0009559088974984874,0.0002443011891274765,0.17826582673675812,0.046056564393415496,34,42,83,86,2
0.0009381736630847376,0.00021768831178414785,0.17573516261009345,0.043220471325612485,30,42,90,92,2
0.0009360100405031387,0.0002180649603646667,0.1721516305417634,0.04334553913513777,38,42,92,89,2
0.0008877951124336293,0.00020904361625324658,0.16431973547801312,0.038278605048416195,38,42,87,94,2
0.0009114294675255341,0.00020514537284616985,0.1511133599194452,0.03858075049827902,38,40,89,93,2
0.0009479318476614828,0.0002462584561946489,0.15330837947634887,0.04016335618151071,52,38,86,82,2
0.0009619849897777663,0.00022974622091779276,0.15299418036712423,0.04004471155359403,42,42,88,87,2
0.0008644351801365709,0.00020757707099079305,0.14620184414754994,0.03784659788410968,40,38,91,86,2
0.0010074396664528135,0.00021702545656263585,0.16211783570488053,0.037122401052318364,34,34,82,83,2
0.0009938789657529233,0.00020886590076854404,0.16919412606826206,0.03604482515838052,34,38,82,86,2
0.0010030168663327605,0.0002108932097555631,0.1612251702618635,0.03683955137028153,34,36,78,88,2
0.0010494020773237534,0.00022649161403075931,0.16397577375839348,0.040786138016412996,36,34,74,86,2
0.0010216975014159854,0.00023358200282498084,0.16465363082535123,0.04264581145953382,44,46,79,82,2
0.0008952946400204626,0.00021460639104838562,0.15018621005073854,0.03903858374146526,42,42,77,83,2
0.0008291646624939658,0.00021564720489336415,0.15090009485790548,0.03737352792021217,30,38,87,84,2
0.0008845379839716252,0.00020152122634075454,0.14967580356891003,0.03643313461070091,36,36,85,90,2
0.0008749056737189132,0.00020024543633601256,0.14569102235790254,0.033108825778229385,32,32,89,85,2
0.0008210594240963221,0.0002018360699249489,0.13563843128431607,0.03575107974596687,28,34,95,88,2
0.0008242521176756544,0.0002220868174783222,0.1424430737976305,0.03857286449600301,42,40,93,85,2
0.0007794182089283863,0.0002305606020988961,0.13489155048430387,0.0408496331950105,42,32,95,85,2
0.0008103608024792914,0.00022453447278442937,0.1384905475043956,0.04407356091292216,48,30,93,89,2
0.00035562484593497335,0.002319196514172826,0.04077081453090918,0.3267585227396676,18,26,65,68,3
0.00033273642728213424,0.0019769125743318975,0.04043464513244323,0.31785362090052055,22,22,65,70,3
0.0003431521041092203,0.0020849315969376316,0.04110211050974176,0.33152190690160227,20,26,65,73,3
0.00035073412514264143,0.0020225948054746396,0.04197000929513476,0.3422590535459855,24,28,73,72,3
0.000342444843554236,0.00206170180190003,0.04518315563521034,0.34324543298309157,28,26,74,78,3
0.0003203634791833395,0.0019174862524224334,0.044128737972790266,0.3200903998984767,24,34,81,83,3
0.00034816447611929626,0.0018173114732882927,0.047656515646629274,0.2987200363382745,26,36,79,85,3
0.0003546271027747134,0.0017980843715032805,0.04662919458971635,0.30219766902327294,28,38,82,84,3
0.00035622213566834906,0.001681579653167207,0.04484422881051105,0.295188378292544,30,38,78,83,3
0.0003653153851797239,0.0018373624579284655,0.04420783704760985,0.3062382032384597,30,30,73,79,3
0.0003918180580764722,0.001934323790379825,0.04617965609390059,0.32139067555042317,32,32,65,72,3
0.00040143340682550864,0.0018948443322578086,0.0480443627636726,0.3161530888080838,30,38,58,79,3
0.00040764435518792115,0.0019861466211738097,0.045375071781176154,0.3167972611758185,22,32,64,75,3
0.0004408662080373872,0.002327163333097907,0.048484215177791924,0.35156637520165623,26,32,68,70,3
0.0004433192021158316,0.001993169631281297,0.05191749015570301,0.33152914657914523,20,28,71,76,3
0.0004722499291118432,0.0018565705639116456,0.05492597731498375,0.3015307028699707,28,24,66,78,3
0.00048797499655069923,0.0018341665206509203,0.058407516955525596,0.30778015531726277,20,34,66,81,3
0.0004665336531283925,0.0015321645532671733,0.05315897467029127,0.27459255629444274,24,28,60,84,3
0.00035688225185809004,0.0015411005242075828,0.04523012501942067,0.2828781436864331,20,28,71,84,3
0.00030244674015820366,0.0015699683236231302,0.038338269201911405,0.2834632940549068,20,34,76,82,3
0.0002943750969665458,0.0016382440567831852,0.037163157428875895,0.2879834496389727,22,26,87,78,3
0.00027273223599508825,0.0015651424912016515,0.03778998437068445,0.27226817902605727,22,26,86,82,3
0.0002863741695135956,0.0014485991764936813,0.03632684748670397,0.26779630586326053,24,38,81,81,3
0.00029398023319839256,0.0014756810157045427,0.03705850659864232,0.27531047907916256,22,32,76,82,3
0.00010608965750030978,0.00014733865575600915,0.013280559114192413,0.012974419531571798,24,12,63,56,4
8.541930587862086e-05,0.00013342807587877933,0.01085214767999769,0.013165591314664504,18,18,61,55,4
9.668957246532038e-05,0.0001011556783603307,0.013130172767344043,0.011808047275736701,18,14,63,61,4
7.340059844955938e-05,0.0001160482548216179,0.010753743101255937,0.011656648671439528,18,16,63,64,4
8.431427796018888e-05,0.00011100071002548823,0.011567183000396181,0.0102019604427949,22,14,63,65,4
8.386495608701943e-05,0.00011778622939205024,0.011926199677673966,0.009955517734502681,22,16,62,64,4
7.741994630412512e-05,0.00012455083785453092,0.010302779386185136,0.010733793493465716,20,18,61,62,4
9.03480602373424e-05,0.00013955532950603333,0.011078734154549595,0.012086017290635733,18,12,59,58,4
9.668995455858155e-05,0.00017634842177055563,0.011509258154822266,0.014231243682625709,18,14,55,58,4
9.729979451081984e-05,0.00014366885453453093,0.01258958808656652,0.012006331304461076,22,16,58,60,4
0.0003034866647447851,0.0009033517810818597,0.022129059095994847,0.05410316344497429,18,16,70,72,4
0.0003140904312226487,0.0010210411977738503,0.021996255408058975,0.05787511341284196,18,22,67,58,4
0.000745524607393966,0.001265350737896175,0.04144132430869199,0.0738557674527566,18,16,45,78,4
0.0007571918969845105,0.0012750032068639605,0.04068981876550459,0.08091849253308596,20,20,46,60,4
0.0005499217847282591,0.0005910986641097494,0.03005628542098024,0.04475566347787113,22,20,66,52,4
4.5823063327344004e-05,0.00031153471677470944,0.0057728934685153995,0.031143073799191862,22,24,72,52,4
4.777055804016702e-05,0.0003040688126119403,0.006143925184774562,0.030884455553494734,24,22,74,58,4
3.8795717069285186e-05,0.00025082900930455105,0.005832322806616044,0.023457896802310335,32,24,76,53,4
4.357295377354331e-05,0.00024848405779385536,0.005996388094952197,0.024621735205838075,24,20,73,52,4
4.3052204281734846e-05,0.00027583284404424443,0.005652808516041688,0.022685279648014076,20,18,69,55,4
4.189175841363772e-05,0.00024284024452529904,0.0054450461554867696,0.021385215566196606,22,16,68,59,4
4.210939579174917e-05,0.0002076530184392883,0.005637789676508844,0.019226803408902714,16,11,66,60,4
4.201533888082658e-05,0.0001818377376280397,0.005366282882717879,0.017701502841976482,20,8,68,60,4
3.981918648432053e-05,0.00017868325938013424,0.0055885614102813164,0.01762397578523106,18,14,69,61,4
