f1ch1,f1ch2,f2ch1,f2ch2,f3ch1,f3ch2,f4ch1,f4ch2,Category
2.5929210764413967e-05,0.0001806107374642513,0.0037322768015364545,0.02089800374207443,30,18,89,72,0
2.9837215313314496e-05,0.00014990211155035133,0.0037607540517914893,0.016366908134739424,30,24,88,65,0
4.4759336693243215e-05,0.00018658529998690786,0.0053271331457261754,0.017436931648027572,22,14,88,63,0
0.00016859887706898252,0.0005512500797623504,0.018831495265028055,0.05013720259781355,14,11,77,50,0
0.0003076414759840227,0.0009000096936300505,0.03780208728712731,0.0786712254652827,18,18,66,48,0
0.0005029636670549983,0.0013175398821336445,0.05272090563817557,0.1181198654403597,18,14,75,53,0
0.0006593038460840883,0.0016599693436800368,0.07293569704646254,0.1507505580614285,22,20,73,60,0
0.0006168204188462138,0.0017724726605587728,0.07340186164480936,0.1692865175870298,24,14,75,57,0
0.0005910945851452454,0.002053080805916329,0.06918183050981565,0.19338980622245008,24,14,74,61,0
0.0005449525843859903,0.0018560628925761,0.07257865361068183,0.1959984853528813,30,16,76,66,0
0.0005181101143001551,0.0019341288665115394,0.07041245764559634,0.20189543596855128,26,18,77,61,0
0.0006237691051529557,0.0020014774127096934,0.07940949358349103,0.2199440591861344,26,20,73,59,0
0.0006597432244886546,0.0019160711579003515,0.08148291277441227,0.21399425016081364,24,24,64,54,0
0.0007104213889673149,0.0017275704228073222,0.07667665159816535,0.19976613948574162,22,26,63,62,0
0.0006588020539641589,0.0019314687885124415,0.07408244008301468,0.20318824211979444,24,24,68,63,0
0.0006082895467829166,0.0016278520562311458,0.07177746743355787,0.1834376939141202,26,22,73,65,0
0.0006930538667970424,0.0017141475870819608,0.08103128904067931,0.18842661316634407,24,22,77,70,0
0.0006838606046247024,0.0017708101866039801,0.08623696367500809,0.1992495226422999,24,26,76,68,0
0.0007019242657187179,0.0017325113750114212,0.09684159796016845,0.20915123139115244,34,24,71,62,0
0.0006836972105744647,0.0021713401549218457,0.10024773984936565,0.24318882179120865,36,22,74,54,0
0.0006908984642055766,0.0021349129790470462,0.10082478938506646,0.23902686076221377,32,24,68,58,0
0.0006407453611285834,0.0022895895257380957,0.09506700380933995,0.2586476165409967,32,26,65,58,0
0.0005825915595113824,0.001953161026601177,0.08550867895779737,0.24592396782595766,30,24,71,62,0
0.0006000200522014536,0.001797580363595812,0.08736376960786632,0.23503850806683665,26,30,64,64,0
0.0005734352465534005,0.0019288913851987638,0.08809538612689415,0.23795051209284562,30,26,70,57,0
0.000602145802835706,0.0021531520345032446,0.09401585816498169,0.22711767706223268,28,24,73,62,0
0.0005904926766440413,0.0022468812404542494,0.0935275800520898,0.2288107203142271,32,22,71,62,0
0.000594160108970789,0.0019551336397816014,0.08772570206359799,0.21281993948356112,26,22,68,64,0
0.0005396633413286324,0.001881649170864224,0.08044033884472009,0.21384817802723038,30,22,74,61,0
0.0006314955539767793,0.002006485233711901,0.08271335700905826,0.23467423973867202,30,28,71,63,0
0.0007146897686734242,0.002135444471740467,0.09401738078881991,0.23190783881279425,30,24,71,68,0
0.000758384498531047,0.002383855128809174,0.10362252208040429,0.23505037632748604,28,26,72,56,0
0.0008197573707068594,0.0023246989021594826,0.10651336974458275,0.24294562903000308,28,24,75,59,0
0.0007889699142833984,0.001972065025927869,0.10442554067384623,0.21466412973473073,30,24,78,58,0
0.0007383189158876451,0.0020203607917441743,0.10257258816189672,0.22104610347494139,32,18,79,60,0
0.0007361697409337133,0.0018282919766996293,0.09386999947578947,0.22680754690172467,32,22,72,66,0
0.0007745826456296289,0.001980428247039932,0.09816682496956225,0.2368261429239192,30,18,69,67,0
0.0007040063765065395,0.0022452318570961383,0.09356383319354947,0.24765565766876083,28,20,67,61,0
0.000815187840703754,0.001979428588264162,0.1020311076480345,0.24147841604436837,26,30,62,67,0
0.0008263777412681248,0.001748582674485353,0.09307276192749663,0.21498190918053567,22,24,64,72,0
0.0007539810867413747,0.0016411458822214772,0.08228224256005222,0.19145552853846637,20,24,61,67,0
0.000725407687631022,0.0017270004779207017,0.08218254543829658,0.1829786502447344,20,22,61,67,0
0.0005377504444203019,0.0016928661874539487,0.06537957718645597,0.1806926377099573,24,16,62,60,0
0.0006525274082160881,0.0018720968520909336,0.07106722418693326,0.19184514818310838,26,24,63,58,0
0.0006283206611844297,0.0019025472868983617,0.07764686738132581,0.19971657379645286,30,24,60,59,0
0.0006882662931625077,0.002019309621597744,0.08035837118603306,0.21530790169922223,30,30,61,57,0
0.0006042063247118127,0.0019446439886926206,0.07269936171174247,0.213624755894037,32,24,65,63,0
0.0005931732982657693,0.0018712434726286024,0.07747959517890242,0.2434948484701931,26,32,64,61,0
8.007111858982995e-05,0.0005211984234633803,0.009228202739649013,0.0566054057533642,20,14,79,65,1
0.0002171715703035125,0.0006911424457444887,0.02274496201736571,0.08619638687238429,14,28,61,62,1
0.0005543434947428189,0.0009242662606923706,0.06597123071733449,0.11677506041289402,12,24,58,58,1
0.0008211141836797489,0.0009027533099133379,0.09684212320161206,0.11696358494759297,18,26,55,60,1
0.0011860065868049734,0.0009176190208527063,0.13779699183921487,0.11672611436717316,24,22,56,62,1
0.0014416974269195288,0.0010112915236458418,0.16944857022287438,0.12093519344872787,30,20,54,62,1
0.0014283868486059872,0.0010273623180376897,0.16920707897517875,0.11120641850277443,30,20,60,66,1
0.0015560665134241995,0.001052487887078879,0.18068907092898706,0.11368491396680565,32,18,60,63,1
0.0013836195890601275,0.0012048344607414629,0.16770655246633848,0.12041704344486454,30,22,59,60,1
0.0012489671606642006,0.0010466677636163807,0.1546467448385943,0.1194279528176694,28,22,58,63,1
0.0010555935817064778,0.0010343728231645703,0.13277822603460987,0.1276005688224511,28,22,65,57,1
0.0009672437893209853,0.0010190794394159086,0.13004561647373591,0.12689941057822887,28,28,66,57,1
0.0009011798540953431,0.0013746916148344457,0.12172652489180427,0.1497129275880905,24,20,67,55,1
0.0010466968114211791,0.0014173905134340894,0.1277664613116963,0.1585573695067384,22,20,66,55,1
0.0011376836136655756,0.0013049623445636524,0.1399679197609821,0.1504128585298014,24,20,59,62,1
0.0011920175557870874,0.0013508720856047454,0.1409407243023032,0.15568857045246412,20,20,58,62,1
0.0013598767165956965,0.0013165390406249516,0.17213232455757216,0.1437415260673386,28,22,57,65,1
0.0012154586980503508,0.0012720169344813837,0.16350037089228447,0.15391791983933595,26,22,64,70,1
0.0013961365976180552,0.0013693916712473684,0.1988013286105748,0.16304487714899502,28,28,66,67,1
0.0014135200954384598,0.001293278390048956,0.21033121989373446,0.1607856862671938,30,28,71,70,1
0.0012043532421798725,0.0014219391179591293,0.18372089169224745,0.17132811148347063,34,20,68,63,1
0.0014732668969129636,0.001215897443158962,0.2169126826193729,0.15555859488199003,30,22,63,62,1
0.001331242497006779,0.0010615472865020078,0.17993680169925794,0.14903803167610583,26,26,64,59,1
0.0013293110337536742,0.001088191396908188,0.17115964167978262,0.15039244626926362,26,24,64,59,1
0.001455912320168353,0.0008713034164660238,0.18418092857433382,0.12338643342778714,24,30,61,64,1
0.0013830790969388766,0.0008992299735093686,0.1685518430593595,0.13261811873078289,26,26,65,65,1
0.0015062761442971666,0.0010294962422205108,0.19599288559762115,0.13730647967507856,22,22,59,65,1
0.0016126611851390244,0.0009644134511156321,0.20106922856051676,0.12875697340623507,22,22,61,70,1
0.001528452820745591,0.0011272182585645644,0.19624124073516205,0.14087857265115533,26,18,62,64,1
0.001439400008916926,0.0010723494834381036,0.19423133129992,0.12766839102368413,26,18,63,61,1
0.0013799568902441001,0.0011351440247969898,0.1780578302453599,0.13747170577458698,30,16,61,60,1
0.0013123301048922756,0.0012065857817179224,0.17051855918946118,0.14954096423436744,26,18,60,58,1
0.0015317891219293511,0.0013003488112576286,0.20009926215311588,0.14772706860039422,24,16,64,63,1
0.0014534721476289587,0.0014178199299995393,0.19053662876792557,0.16246566989631114,24,24,70,59,1
0.0015918808595729536,0.0012160785062718367,0.2043917373358515,0.15231555113589612,24,28,67,58,1
0.001562433334346587,0.0012293990285242287,0.2052881649147458,0.1667096912253469,22,28,64,60,1
0.001582123747947768,0.0012318092494967015,0.19477371518099226,0.16738924836512803,20,26,62,65,1
0.001658966587091991,0.0012468353076521155,0.202971094307064,0.15860382899155775,18,28,60,68,1
0.0016440183107823943,0.0012562970435703875,0.19933888185241597,0.1716383877783541,20,22,57,69,1
0.0015335536715589987,0.0010917643158216356,0.17013376706242367,0.14737512535478914,18,20,57,75,1
0.001063187856769467,0.0011429395479071193,0.12117880976114545,0.14176507504203553,18,16,57,69,1
0.0008753741299282111,0.001099205061107292,0.09848992882480677,0.13269033961556945,22,20,55,60,1
0.0007478147916632888,0.000993925928569333,0.10398703746497075,0.11027604843127507,22,16,53,63,1
0.001118740843808642,0.0010426943966495548,0.13578164055911726,0.10581837722813837,20,18,55,54,1
0.001180116739074329,0.0009910053336710616,0.1531498665273723,0.09716812984671648,26,16,59,61,1
0.0014331737591595812,0.0008231867611634755,0.18033141968015035,0.08985609422591054,28,22,63,61,1
0.001371973114414264,0.0007711861419444959,0.1764289925282885,0.08732440734031978,26,20,68,58,1
0.0012335176426962562,0.0007359378280273948,0.18037983501480753,0.0800817955207466,26,20,70,60,1
6.784702609103774e-05,0.00013047471218846513,0.007251244217379563,0.014953041989607205,10,24,79,67,2
0.00014088110015249628,0.0001564435600297543,0.015076744322364645,0.015399386171226357,16,20,80,56,2
0.00028369039172862536,0.00018613867214108148,0.02658659535384463,0.01913548997335723,18,20,74,51,2
0.00038487901998915315,0.00018530322484315473,0.04071147713463471,0.019717690649552505,26,22,69,58,2
0.0004279534162513997,0.00028574780448955965,0.04771511805476889,0.02952016432670568,30,14,60,60,2
0.0007336354446174924,0.0003286597124921198,0.07324427274621696,0.03401837654938388,20,20,50,63,2
0.0008681997989199109,0.0003274422874333077,0.0967393938245384,0.03400189373776296,20,20,49,72,2
0.0010240749597169281,0.00037143734142062004,0.11546183037892745,0.0404134077473987,18,18,54,73,2
0.0012042250435772331,0.0002919484682057515,0.1431950477273696,0.03871987647528018,22,32,61,74,2
0.001105375955014233,0.00030607280110819053,0.15257525959737958,0.04482985060740069,34,30,73,76,2
0.001019878585734201,0.0002880516933776325,0.14926316881209237,0.04796680959167146,36,30,79,78,2
0.0010322085960687544,0.0002825265394183662,0.1571548407084465,0.045986044817815826,40,30,78,83,2
0.0010297743976770515,0.0002632432492597465,0.15599478694271315,0.042912492867463216,34,26,72,86,2
0.0009474256736273596,0.0002154681122759301,0.1470024109573719,0.03826178472679172,28,30,67,89,2
0.0009048328321327364,0.00023019496741601549,0.14664218907230722,0.03763282588302757,34,30,67,84,2
0.0008373874411272315,0.00022253541664007522,0.14392624731611028,0.03799642016920507,36,32,78,81,2
0.0008939650005914479,0.000251054622087743,0.1524173774705088,0.0419620387140815,36,36,81,81,2
0.0009082735941143081,0.00026423175601713054,0.1540240456916671,0.044505596694978215,38,44,87,81,2
0.0009461968663600533,0.0002576181371536614,0.1618350292245983,0.04458836945547742,34,40,86,82,2
0.00099692478703544,0.00025769901654073646,0.1611497102464158,0.045624767415012736,36,38,87,75,2
0.000906316200253178,0.00029488067181106665,0.14834901959415348,0.05051796104759824,38,32,88,75,2
0.00087622643986044,0.000474212436222639,0.147882769875774,0.06228626998656191,42,22,92,77,2
0.0008835203642847979,0.0004701927044819881,0.15861146457350808,0.06307871697425546,36,22,85,79,2
0.0009368455062675581,0.0004797932287367854,0.16728839700419088,0.0611694644575551,40,20,82,84,2
0.0009929200292582347,0.0004483537320620906,0.17987397188161397,0.057082505503993346,42,20,85,83,2
0.0009962586317494287,0.0002984139202614935,0.17797558445578437,0.04491535598631772,42,38,87,82,2
0.0009333813022490751,0.00034391791251101576,0.17720476915673097,0.05149489551314393,44,28,92,79,2
0.0009111883412191062,0.0003264512415907432,0.16640458035287725,0.05705433927500712,42,34,87,79,2
0.000815529983946154,0.0003165319507773304,0.15206461453989029,0.05725711952112673,40,36,86,80,2
0.0009099625967946909,0.000317768988641703,0.16675694510955108,0.054803050962118606,42,26,82,81,2
0.0009835349240345953,0.00029221965247563236,0.16988269643216886,0.04654556646448217,34,30,74,82,2
0.0010756753037386602,0.00029145261062312453,0.18650849988821772,0.0442809078404731,34,30,76,82,2
0.0012339948394628918,0.0002763608330946828,0.19453575111670227,0.043823065935846554,36,38,76,86,2
0.0011656996583688916,0.00026663783273685263,0.1897885980736789,0.045719433358817674,42,42,79,88,2
0.0012276625960121854,0.0002840925344761534,0.18382959123740128,0.049732027374502316,40,40,82,83,2
0.0010851522602715825,0.00024144597771926863,0.18062510447983599,0.046257990809789463,36,40,84,79,2
0.0009170018916126524,0.0002460784999803258,0.1621079364199618,0.04313137954539386,34,38,86,80,2
0.0008983246032788617,0.00024417118450008795,0.15634801583777613,0.044191255809433866,34,42,83,85,2
0.0008058172510509304,0.0002328334813854297,0.14797374493793924,0.04122872124754846,40,42,78,87,2
0.0005914469327694875,0.0001967663993612895,0.10995598062315665,0.03188599393759848,40,28,89,84,2
0.00047451125171859594,0.0001321621263550671,0.08342564042658746,0.02298658747334637,30,30,98,90,2
0.0002960861213125723,9.290390896314275e-05,0.0467957169894912,0.014180936974283704,16,22,85,87,2
6.992329025929219e-05,4.793404910542555e-05,0.009791442008540825,0.006274390901597171,22,18,70,89,2
0.00018921598765895295,6.197657044211591e-05,0.02517837815556272,0.009468610784239079,22,26,74,88,2
0.0003355812278186109,8.098584237107074e-05,0.04329301473635996,0.01269236746930795,14,32,65,84,2
0.0005957541682744351,0.000125411487685393,0.07452672750162387,0.017785034864984953,18,32,69,88,2
0.0007681964162889038,0.0002559605443930282,0.10736795293887728,0.028985513969317676,28,20,68,87,2
0.0008386368043478179,0.0002767206661008157,0.1294721382968015,0.03572094148907519,30,28,76,87,2
7.41097935098179e-05,0.001158356925007969,0.00893965741029988,0.13073488450242682,22,20,77,46,3
0.0001672149806880428,0.0018496175147124868,0.01521542688365798,0.19367771966257794,20,18,57,54,3
0.00023476883339847659,0.003004041497192903,0.022892889491310565,0.32666614636607355,18,18,63,58,3
0.0002862484441657876,0.0035646911490591513,0.029505979660454575,0.39047080004269363,16,18,64,58,3
0.0003510259283044724,0.004055432457029157,0.036551644470139075,0.4575316744488727,22,26,57,57,3
0.0003400917620145819,0.003585771774373475,0.035652199628855054,0.43845589754607744,24,24,57,61,3
0.00029469465750146454,0.0030097099152830336,0.03473222212155371,0.3976820103429646,28,24,61,64,3
0.0002715086647859436,0.002510372296340941,0.03205487889140208,0.3733267183993679,30,26,68,63,3
0.00024914862652309874,0.002396721534295308,0.03110365624798815,0.35497838232967144,32,26,64,65,3
0.00024626388252957165,0.0024103607888784494,0.029411227953597723,0.3643366977508345,22,24,59,62,3
0.00027290772192778656,0.002281021853480219,0.03003541202323186,0.33206631979064666,26,22,68,65,3
0.00028726067725285364,0.002299355017348809,0.03389001100710924,0.35449107249798884,24,28,61,68,3
0.00027086041736811256,0.002124883172463361,0.029570711075179733,0.3309681288559026,28,30,74,66,3
0.00024125813820784675,0.0020495776509444424,0.029267912206021016,0.3050665729138922,24,26,71,72,3
0.00024210871078645104,0.001993853739922512,0.026787531073587393,0.2980159586959438,22,32,70,70,3
0.00018858748848342647,0.0017150957775963981,0.023870383768931802,0.2548704255150892,28,34,67,70,3
0.00019086116395007808,0.0015413733146900914,0.02401255691173998,0.23971226516047897,28,32,68,70,3
0.0001834501246314308,0.0014416266260471587,0.022952326509411123,0.2407766184120662,32,38,62,75,3
0.0001946234303583907,0.0014699852338314631,0.023813996983391365,0.23441877200043532,30,36,68,74,3
0.00018768917101195926,0.001399664562590973,0.02219538471434867,0.22656724646288412,32,36,64,75,3
0.00019989910709477927,0.0013855003525991294,0.02297899391922711,0.21429099337368301,26,32,70,85,3
0.00017269709025433689,0.0012203227909853278,0.022304745326467437,0.19932194117283505,32,30,71,77,3
0.00014830140021072563,0.001173054406703405,0.020678180182722848,0.19581733686712813,38,30,79,80,3
0.00014382993352250322,0.0011337447093698173,0.02106063016181793,0.1848973970454585,36,34,82,80,3
0.00013421823417708413,0.001194446421729855,0.021156148991534417,0.1981091906405629,34,38,78,75,3
0.00014692130464349256,0.0012284424279970618,0.021761920091967552,0.20573407783313424,30,30,76,81,3
0.00015698254388961028,0.0010756062100695887,0.02246041548787875,0.1965058704894837,28,42,76,89,3
0.0001563955955082728,0.0011815401838972373,0.022847797181508908,0.20935864462505455,34,40,76,89,3
0.00016241847369296664,0.0011677138946409578,0.023545920618734048,0.2205547940785912,30,44,75,88,3
0.00016192502271866662,0.0012725810728931122,0.024718663386930868,0.21463206587544909,36,38,78,82,3
0.00017775798201859428,0.0012971412715737302,0.02567010323932726,0.21823180003095205,34,40,67,75,3
0.00018508003981625385,0.0014787612099954302,0.025100841533864774,0.2359752077980816,34,34,70,72,3
0.00017515044702413884,0.0013906080607385721,0.023826024953616583,0.21915954697878767,30,26,66,72,3
0.00016552798399957329,0.0014355640498724756,0.022094063389562952,0.2241307928854922,30,30,68,74,3
0.00016955197132517607,0.0014670570738908122,0.023682446483395812,0.23783729688283595,34,34,70,78,3
0.0001629395253578194,0.001369825202304887,0.024614474763089315,0.22928078673586505,36,34,69,81,3
0.00018163158843727164,0.0014948342485484776,0.02528233604275755,0.24276272991950068,32,38,72,85,3
0.00018500045668159857,0.0014878975429045206,0.026916470468743493,0.23218656711425026,30,34,69,86,3
0.00017686852211207496,0.001471806578668481,0.025316433670245022,0.2230355810837462,34,30,72,80,3
0.00020181212643845449,0.001181187890746917,0.022592477474607398,0.17365403845789387,24,26,76,73,3
0.00018120922563184764,0.0008500556826402459,0.01774604137555845,0.12064546870303271,16,24,75,69,3
0.0001350730756594374,0.0006003857050720115,0.01221394760121021,0.08198460243081644,10,18,81,72,3
3.727592747112178e-05,0.00044381239749567974,0.005694119291169187,0.05424109876320374,28,16,99,65,3
5.5541722244429704e-05,0.0007573040102617678,0.009495278435293714,0.10067411080574785,36,18,95,64,3
0.00010657220199138973,0.0011622517233348165,0.0130501500761119,0.15163329135281264,28,24,84,61,3
0.00016105472869190756,0.00189097930628652,0.018208122231991513,0.22466431241347595,22,24,75,58,3
0.0002013575548984848,0.002141089423729086,0.026418399194543644,0.30540730034448527,26,32,65,60,3
0.0002742123824390589,0.002385499053232187,0.031733207338475324,0.35576180296366444,32,34,55,63,3
4.796664017090365e-05,0.0003392337000561902,0.0061157901668238744,0.0366768863631428,20,18,82,53,4
4.9440778251818534e-05,0.0003434498869574386,0.006451620500639502,0.03879940574498057,20,16,92,53,4
3.8075065657663006e-05,0.00027608269503106556,0.00548757898490803,0.0322108281428181,26,18,90,58,4
3.671662016317385e-05,0.00026150508924263085,0.005717168024887007,0.03047355047024409,36,20,82,62,4
3.672282916406293e-05,0.00019939800160420317,0.005549351365319031,0.02420938377930059,34,18,84,59,4
3.57455113597095e-05,0.00020598584021435453,0.004983110431986028,0.020658877434301802,38,18,87,58,4
4.322813724799601e-05,0.00017944922304928763,0.005617768205764597,0.021480726649873258,26,24,88,64,4
3.686390645162923e-05,0.0001709049816853456,0.005046500425268388,0.01907268241193317,32,16,84,63,4
3.787288624819851e-05,0.0001549971367595299,0.004890104231119694,0.018192811546005695,32,14,87,68,4
3.939084784119573e-05,0.00018678167448473487,0.004750757275604705,0.019403328405942406,28,10,86,73,4
3.267553668219602e-05,0.00015512290947620786,0.00433388291911476,0.017246140340862425,36,16,89,74,4
3.275260483648002e-05,0.0001711714574979138,0.004202291501224576,0.018096659208397568,28,12,92,72,4
2.9202132619496164e-05,0.00021266985610227075,0.003930128566239782,0.01981295806775594,30,16,83,60,4
3.0854972903307206e-05,0.00013624176191639955,0.004143451349883021,0.015514168716390678,34,18,80,69,4
2.838128609169951e-05,0.0001788394182774795,0.00403476230261456,0.0193831952349515,36,18,85,67,4
2.8393169745555296e-05,0.00015010229261668066,0.004169063923109104,0.016922691415008528,36,18,85,68,4
2.4538604011658714e-05,0.0001424541865938389,0.004139849712560251,0.015048665341526149,36,18,92,69,4
2.342648804417708e-05,0.00013527568930557195,0.004053448895525678,0.014726184825405653,38,18,97,75,4
2.3376801504274057e-05,0.00010085069739001408,0.004085858269739073,0.012513450459392712,34,18,101,73,4
2.4028140007763783e-05,0.00011117216507298904,0.003929616350465016,0.01472505598224031,28,20,112,66,4
2.720554336914164e-05,0.00010414269658868998,0.004200549912970513,0.014450317219182168,26,24,96,66,4
2.5922710654688322e-05,9.679366556774577e-05,0.0038855296664099337,0.013076510805018383,32,18,94,63,4
2.734727522267963e-05,9.758982240483227e-05,0.003886782242048334,0.013916625566775895,30,18,92,67,4
2.7796008800041336e-05,0.0001028746414275992,0.0037711737863815064,0.011922381555652858,32,18,94,75,4
3.04763661596421e-05,8.594350677800896e-05,0.003896314930764928,0.011260422444549858,28,14,95,79,4
3.6111012091491024e-05,0.00010591492165499537,0.003935027287609792,0.013589109020812864,28,18,90,78,4
3.1192425352007355e-05,9.822869810599823e-05,0.004097873463837501,0.011600925382780932,32,16,86,85,4
7.415325211738965e-05,0.0001730641254117008,0.0062145231813191424,0.0193386340518921,10,18,75,67,4
0.00011679916718639365,0.000253937408212365,0.008414567733144319,0.023579435881077887,8,12,76,61,4
0.00011452295865767498,0.00036304649699245,0.0089260871636097,0.03504945595979977,8,14,74,67,4
7.675705735629522e-05,0.0003417046589859925,0.00714433649841794,0.03615282937235879,18,14,81,59,4
6.911135162447575e-05,0.00032822289088350865,0.006766150046084392,0.03618300495830998,7,18,86,66,4
2.9044331358855727e-05,0.0003017811287846106,0.00435979802653381,0.03338709840030716,40,18,86,72,4
2.400802565575648e-05,0.0002110762987527132,0.003653561362176384,0.0256958769060666,32,18,93,62,4
2.596564657095241e-05,0.0002273846760768092,0.003434054646631495,0.029997003751736293,38,24,93,68,4
2.5179976953791615e-05,0.0001950051712786084,0.0037273529851701522,0.025338347056941584,32,18,97,69,4
2.7137344029179098e-05,0.0002336599204713466,0.003907542483737151,0.02782945483857329,34,18,91,62,4
2.645015326724528e-05,0.0002286351710282315,0.004281405348032275,0.026331245298120743,36,16,85,66,4
2.4586743685899187e-05,0.00024352303845159455,0.0042246649685514165,0.02988124682520293,40,18,81,64,4
2.340369242993302e-05,0.00023121864170367275,0.003948122719795118,0.028390068211401467,42,18,81,58,4
2.5737465739164924e-05,0.0003024731297423352,0.004269245584548022,0.03133610670142691,38,14,86,55,4
2.3112875192009896e-05,0.0002508526984302314,0.003972623962738485,0.02649768012369423,38,14,88,50,4
2.6251375850411974e-05,0.00025623622043978266,0.004120479529094718,0.023030713598799088,34,12,92,58,4
2.7090007356023532e-05,0.0002391654863991532,0.0041673266319438036,0.022711187873406338,37,12,90,68,4
2.5630590791090356e-05,0.00014871040526726281,0.0038669847256397973,0.01812006445402403,36,12,87,66,4
2.9240533853582e-05,0.0001625824438997845,0.004049742127421274,0.020655522042426475,34,16,88,70,4
2.7077040859050208e-05,0.00015388343768919495,0.003967047380218219,0.016737324151167562,34,12,92,70,4
2.74050688712775e-05,0.0001221785354014035,0.0040118453495675095,0.01600084858954365,34,16,88,83,4
0.0005803802991617557,0.0020169766837015925,0.06988872103680392,0.2465250701352377,30,32,79,58,0
0.0005773070697520934,0.0020699273426864903,0.07064876473203723,0.24260236158406076,18,26,74,71,0
0.0005249746694271391,0.001926394804593363,0.06730825520772771,0.24255419048171342,20,30,70,63,0
0.00047283782639279126,0.0019079391041342383,0.07050111715431182,0.24135166506397404,28,28,71,60,0
0.00046200265037691057,0.0022345397202436714,0.06428617109688627,0.2705622466690864,28,24,67,60,0
0.00057152659397815,0.002030750604937775,0.0754558137433317,0.2437798369108389,24,26,69,59,0
0.00058305718731134,0.001979353848219754,0.07577004838431887,0.23228057591260007,28,24,72,61,0
0.0005980073635017485,0.001823878863681395,0.07574472452757064,0.20786575853316178,26,22,74,65,0
0.0005793219736993295,0.0015282397059865657,0.0733275984827099,0.17568382871590138,28,28,75,68,0
0.00047429533339702636,0.00129975963698876,0.058975618785595575,0.15475157689341631,28,30,84,66,0
0.0004503623005380525,0.001620144462869456,0.05468489177298403,0.16837039534225734,28,26,77,56,0
0.00042499451777467485,0.0015659769704224537,0.05412589833415005,0.15558660073660457,30,22,76,56,0
0.00045832980735693906,0.0015847088787688964,0.05814844828753104,0.16336776099684366,32,18,64,54,0
0.0005830856161764926,0.0017507218041846653,0.06530303426945781,0.18829661471639628,20,20,58,52,0
0.0005849827125739591,0.0016926995109143917,0.07154239940152739,0.18492426689722172,28,28,58,55,0
0.0006713966200807115,0.00159593423701595,0.08006594768818079,0.1994637196320719,26,30,62,53,0
0.0006973692955132517,0.0016706196018184056,0.08511739631029122,0.20874162476825883,28,32,62,57,0
0.0006304659947104604,0.00158406078516201,0.08298640738070953,0.20736624898151168,24,32,71,63,0
0.0006280644961209856,0.001509886702969491,0.08482730832688128,0.20104743338502654,26,32,70,70,0
0.0004926330580479264,0.001624842118691801,0.07283814462063445,0.21448902080820495,22,32,75,74,0
0.0005349583737354001,0.001465166826850551,0.07388097202159526,0.19887684855537813,28,28,71,70,0
0.0005426775121737787,0.0015078966493651622,0.07866786267402513,0.20335101832395278,30,24,66,68,0
0.000524979123687509,0.0015080800699812538,0.07287367813754975,0.1975552407382909,28,24,72,67,0
0.0005633149717755216,0.0016866908842956385,0.0696021707779241,0.1944195198553601,28,26,71,67,0
0.0004946447546891634,0.001635235660002018,0.06782959793841112,0.1895064367454156,26,26,77,60,0
0.0004927276397671466,0.001457171343848191,0.06122374792788461,0.17635208034936592,30,28,81,64,0
0.0004656303854815763,0.001433822789063735,0.06354860643705487,0.18396123328658046,30,22,76,57,0
0.0004901630600583186,0.001419448304918489,0.0683851058909363,0.18200493988475064,26,20,67,58,0
0.0005100142925236892,0.001472363137766807,0.07297780201845241,0.19175310131417395,30,22,71,58,0
0.0005152369379084243,0.0015630447744795998,0.07485426510586822,0.20130533737203996,28,24,69,55,0
0.0004809914030700057,0.0016176446934447041,0.07247439361712822,0.1975957302728805,28,28,70,58,0
0.0005522879718998983,0.001617071626177822,0.08001564387593185,0.190862627950289,26,26,68,67,0
0.0005710925215829339,0.0015227998386977372,0.07263182026148812,0.18031902354315488,24,24,63,67,0
0.000609852607615719,0.001619692276868549,0.0746491494551849,0.18237614932473056,30,20,62,71,0
0.000627111199083245,0.0016510587243202177,0.07388691083415923,0.1904328332542166,26,24,59,67,0
0.0005564849097837237,0.001521572500572377,0.0658211626080422,0.17841296523072558,28,16,59,69,0
0.0004980528648711585,0.0017640280258375907,0.06428049927613769,0.1917222192342668,34,18,63,62,0
0.0004834736370424244,0.0016086625268353963,0.0669057851971772,0.1895109611968682,30,24,73,61,0
0.00041649548985288397,0.0015297655206280114,0.06391551742045952,0.1833325337995614,32,24,83,63,0
0.00042974224633032386,0.0015363274970029933,0.06040220218828604,0.18894476172460284,26,20,75,63,0
0.00043793587609475694,0.001334528752018317,0.0662333593733731,0.17017955273847055,30,20,76,67,0
0.0004214500995296247,0.0013786690353518364,0.05988226538151991,0.16824516679350215,32,24,73,64,0
0.0004691043884545192,0.001266772108396571,0.06737278780868357,0.15775331146137803,34,24,71,69,0
0.0004607313519023247,0.0014384470210982237,0.06810466599659733,0.17565982764431218,36,26,73,58,0
0.00043706463677715496,0.0015805703999299094,0.06228532266779368,0.17839577064362194,28,24,77,62,0
0.00044784132572363625,0.0015830976662464474,0.06439755764925295,0.16829244073345842,28,20,76,65,0
0.0004279219499021356,0.0016678293985468472,0.06156358989109003,0.18966914692649586,32,18,75,69,0
0.00041018378815220013,0.001358799677841301,0.06706871240638977,0.16257559146368455,32,30,82,67,0
0.0004039740717158207,0.0015287311631401671,0.06486517725670728,0.18524701873739025,30,22,74,67,0
0.000575227828283889,0.001073681378458979,0.07384441063721361,0.12082338011498568,28,18,63,54,1
0.0005857128708065206,0.0012757727949542128,0.06698598908905708,0.14203692091471853,24,18,63,59,1
0.0006158712624743088,0.00110287447742696,0.06418316696080478,0.1312434316858249,22,22,61,54,1
0.0006023717309660166,0.0012018777667898413,0.06011432892846727,0.13597858883653377,22,22,66,53,1
0.0005410547024523273,0.0010463843956768075,0.05801673608276099,0.12568572629339236,22,18,64,57,1
0.0005453971745950545,0.0009618663681115663,0.06205119982304893,0.11764849599401898,16,20,61,61,1
0.0004369332667777427,0.0009508512675703096,0.05554607421230135,0.11633924564479342,18,18,67,64,1
0.000367181517583645,0.0009866271429586624,0.051360600803703194,0.11379396405037577,30,18,74,69,1
0.00035830611071479174,0.0009947029375980288,0.052941958390402645,0.12294741415680205,30,20,79,69,1
0.0003207214220759265,0.0007932246119874139,0.044973601884918925,0.10757824963451026,30,24,76,65,1
0.0006001345138834959,0.0012012148155204991,0.06899406233956652,0.13367790975776567,26,20,69,65,1
0.0007831869443505376,0.001012750176218663,0.09991638105099572,0.11849652019223125,16,18,61,56,1
0.0010782029610351832,0.0009656285891046485,0.1121844247944718,0.10749581964221824,16,20,61,59,1
0.001194260803654032,0.000986073831995102,0.13749530296373103,0.10431470009721862,24,16,64,55,1
0.0011651901809665026,0.0007590945308477867,0.1262933895040521,0.07983233818843234,26,20,66,66,1
0.000970515881006751,0.0007459988635480923,0.10893714287379232,0.07824991121976001,26,22,74,62,1
0.0007185790367080462,0.0007129991063399061,0.09119693049289475,0.07983258185689349,28,26,68,64,1
0.0008050464245379223,0.0008064710559255035,0.1044641317695138,0.08317889191207559,26,16,69,61,1
0.0006972547850109845,0.0008509657705866821,0.0976483727249865,0.09179893895448574,26,22,75,61,1
0.0007611668137420773,0.0008296219910223193,0.10519087818013792,0.09715767283112098,24,24,72,62,1
0.0008922643808637316,0.0008927922404953588,0.11783084502493589,0.10406288635486395,26,22,61,62,1
0.0007410935522869353,0.0008181243947056217,0.09993202264258456,0.10210209762309194,28,28,69,64,1
0.0008110708286365334,0.0006917362114089424,0.1083195514266405,0.08374359139762987,28,32,73,59,1
0.0007145475303117958,0.0007337280187719101,0.09837736207245619,0.0824558230507943,30,22,75,60,1
0.000808404094383079,0.0005814511170467464,0.09887618947558693,0.06913352509930937,28,24,73,60,1
0.0007738748888868412,0.0005941986200338979,0.10019623523989933,0.07280674428853075,22,24,72,59,1
0.0007181193922440832,0.0006329359205370753,0.08875315422029932,0.07714954005067469,20,24,68,52,1
0.0007593347301271572,0.0005683562077684796,0.09395419159370776,0.06869375151929384,26,20,66,63,1
0.0006845970759819405,0.000596483852817201,0.08321712299703574,0.07363447870534137,20,24,59,63,1
0.000559397758530925,0.0005543339543693189,0.07355928636494716,0.06680267579724707,24,22,57,65,1
0.000528173715657445,0.0005005985787463202,0.07165236166991705,0.06395291365386027,24,24,59,64,1
0.0004982253531565645,0.0005861201240952674,0.060585683585089464,0.07164384265805827,16,22,58,62,1
0.0005210981031611648,0.0004942251260507666,0.06213263661312572,0.0660881485643537,22,20,59,63,1
0.0005667301896299318,0.0005126314423033429,0.06875884856141663,0.06902334885441364,24,22,61,63,1
0.0006344618991711868,0.0005158961125960502,0.08215081487727197,0.07197043122231347,30,26,67,63,1
0.0006382584010384138,0.0005543096390116986,0.09046629466913705,0.07105538522145328,34,26,65,66,1
0.000664494064984895,0.000632765542229721,0.09361159596224253,0.07802310840331617,28,26,61,64,1
0.0006780426693047452,0.0006258229044095915,0.09050961647269187,0.08110377402985815,24,26,61,67,1
0.0005957762639120552,0.0007693283628677924,0.07605528286156629,0.09010269013692569,24,22,64,63,1
0.0005446473079804922,0.0006780720647099774,0.06815543004655017,0.08473423667248278,28,20,63,59,1
0.0005973212929178057,0.0006493208121923852,0.0735531422948326,0.08452081586693805,26,22,68,62,1
0.0005775027621092038,0.0007489363826180657,0.07824309148075557,0.09018385615760358,36,18,71,60,1
0.0006937290917041761,0.0007371431986603603,0.09623477277623334,0.09270610831342199,36,26,67,65,1
0.0006935816968900016,0.0007726329517767043,0.10075594152525175,0.09794535624608643,30,26,71,66,1
0.0007835764909339177,0.0010232722563243064,0.10971652282979612,0.1150167581339968,28,22,68,65,1
0.0007603074536356014,0.0010495446559255926,0.1040461326197688,0.12115072487947633,30,22,67,67,1
0.0008244278850337529,0.0010435714670004122,0.10089090231061326,0.11614909541622384,32,20,65,65,1
0.0007910798261373621,0.001131664237355281,0.10094736265303032,0.1344335383893079,30,20,67,65,1
0.0006802897144587623,0.0010928339599660661,0.08606662941341471,0.11821883056049426,24,22,70,68,1
0.001652591054817132,0.00027432690278805127,0.26416803477328404,0.05078305665299006,36,38,77,89,2
0.0016378875244301217,0.0002775144658990827,0.26724244065390795,0.04750599417139911,36,38,76,83,2
0.0014976030586827055,0.00025585827070644866,0.252430930332474,0.04452006976467379,32,38,77,82,2
0.0014493854234350005,0.00024879885658165034,0.25169150109716604,0.04759921856797702,36,54,79,83,2
0.0013292388706854924,0.00026429844745075103,0.24042947688552022,0.05106472018106455,40,46,86,77,2
0.0012820004094810764,0.0002455081254868334,0.22635468683674712,0.0484882571779625,38,44,83,81,2
0.0011617538665350529,0.0002814688637830538,0.20354294861027392,0.05391525035093189,36,44,82,75,2
0.0010158211647629304,0.00026310084862554315,0.1752139526181993,0.04916967081210727,40,44,74,75,2
0.0010448600276108133,0.00023271938737817025,0.1839397221618418,0.04307696600468913,44,40,71,83,2
0.0008784322232749503,0.0002512285524746896,0.1487432946444783,0.03842980010001407,36,44,82,80,2
0.0006523333676288618,0.00019492496057653375,0.10342018628430555,0.027029943292497072,24,36,68,77,2
0.0004196953348772719,0.0001782992102176638,0.06112246387887068,0.019375004520587578,14,30,74,79,2
2.8797862789479234e-05,0.00011944239458057066,0.0032402801966508643,0.011890247404993889,24,20,89,74,2
5.18901594315841e-05,9.433376180121203e-05,0.00607703479332822,0.01077248072515973,18,22,86,72,2
0.0001893407302395182,7.843658782931122e-05,0.021372953677564407,0.010725865747641427,12,20,68,75,2
0.0004073131031664406,9.265618866598109e-05,0.04728312652165416,0.01454438062368418,16,24,55,84,2
0.0006169343843060556,0.00012044526166819952,0.0817159641181621,0.01928338616853384,18,30,66,85,2
0.0008121219905396846,0.00020098737102310118,0.10989156702392394,0.029792377676420557,28,20,69,83,2
0.0011785114284641443,0.0002405855954942677,0.16553162725593823,0.03607813690656666,28,28,71,84,2
0.0013312996626103572,0.0002832188183935407,0.19876199734047445,0.043551230464899886,34,36,72,82,2
0.0014479046572012475,0.00030831716474811593,0.21964301113683724,0.049879719546518354,30,48,72,86,2
0.0015146579433601597,0.00029637422939256236,0.24408453524316456,0.05485737250821352,32,46,74,86,2
0.001373735932889351,0.00028065970068341444,0.230293397915708,0.056073825920035326,42,44,73,88,2
0.0013540843026531879,0.00029668685263234163,0.2304044812369129,0.055117352184551605,40,42,73,84,2
0.0013093339077354053,0.00026581325382908237,0.22978140385267423,0.05193497011138302,48,42,73,90,2
0.0013635792436417099,0.00025525257944834106,0.24193894704964333,0.046738580495641675,40,40,76,84,2
0.0012984411905996726,0.0002620713817536601,0.24191767690577826,0.04758607139848156,44,38,81,83,2
0.001279340560479139,0.0002703034977800925,0.23354346271491566,0.04756000918848185,42,42,84,87,2
0.0012814115667048932,0.00024573697980342994,0.23335841829249537,0.04828303045911379,40,42,87,86,2
0.0012486750199102064,0.00024612084265930253,0.20950685291780705,0.04911334275425644,40,40,87,93,2
0.001163744286840196,0.00023252912774831497,0.20880993485836719,0.048524481648943116,40,46,86,95,2
0.0012404278924839044,0.00024253289047185226,0.20972720368147849,0.04721858600385983,48,48,78,90,2
0.0013461145723264443,0.0002955901432059187,0.2100951094515708,0.05336762621954416,42,44,74,87,2
0.0012116033653667114,0.0002909719299103156,0.22980334045554168,0.05397487569900264,40,44,77,79,2
0.0010859918574509448,0.00028999929924480644,0.19916664003802934,0.05618080288933516,34,48,80,81,2
0.0010433520833873146,0.00030846608343486673,0.18740682057938526,0.056011546147971804,36,40,87,78,2
0.0010028569315761557,0.00026646211589163,0.1669336739240692,0.047736401735066006,28,36,88,83,2
0.0009090863313550194,0.00024555554953542953,0.1555973996683006,0.0449522472203603,32,38,90,83,2
0.0009461388946495105,0.00022393784246955214,0.17518277622661577,0.041468867674105285,38,40,92,85,2
0.0009630198277555817,0.00022974205638947706,0.18079196339694226,0.04008992891131288,34,42,84,91,2
0.0009999656989015812,0.00022693100368486758,0.19032571357781125,0.0421026440784344,36,44,85,89,2
0.0010309385679851627,0.00021604705343106694,0.18107158960034675,0.04099818426193504,32,38,83,89,2
0.001113817593522149,0.0002341776721485217,0.17348120449965904,0.04305618291580377,24,40,85,84,2
0.0009557296746883284,0.0002459924283935569,0.16403575495728778,0.04498396332307525,42,40,88,78,2
0.0009022225422926902,0.00023477078756731852,0.162302699768346,0.042731741289616924,46,42,90,81,2
0.0008632345269242857,0.00024498537016205907,0.16471532943687286,0.04558485404878072,46,42,88,84,2
0.0008805113751185815,0.00023790719712287793,0.1668048469659577,0.04523443429518948,46,46,84,85,2
0.001058693944643585,0.00024883292658972535,0.18264705244246013,0.04577621999527903,36,38,86,82,2
0.0010447000314592761,0.00025049976757909696,0.18410483878442613,0.046030470247495535,38,42,87,81,2
0.0003642068365590645,0.0025380882070144373,0.0448429064430796,0.40158644130544374,28,36,76,84,3
0.0003946878802572062,0.00276422864212396,0.048790397478664836,0.4148165870588579,24,32,76,80,3
0.000456231682509319,0.002866379931512831,0.04880765995330166,0.4048954376191694,22,28,71,79,3
0.00045819779721564417,0.0028827619694279717,0.04796624713959562,0.42045212838319895,20,28,65,72,3
0.0004520736677658084,0.0029970728618486913,0.043969064724146835,0.4163409951618046,16,26,62,69,3
0.00038537662884808346,0.002820728240670851,0.040118742820482896,0.40606702309608733,24,24,61,68,3
0.0003507991207280678,0.0029039706195793553,0.0363732045083013,0.4082835909547552,28,28,75,69,3
0.000360363765143758,0.002760134734241489,0.038826251452345896,0.39388184389609204,22,30,66,67,3
0.0003176247197114071,0.0026017004632755856,0.03678584164391202,0.38330964983885474,26,26,68,61,3
0.000354166903680127,0.00213905493074336,0.033558627859271516,0.3200789564541815,18,22,64,67,3
0.0003043190226418058,0.0022068945505638164,0.02873640786564075,0.29230988535963515,16,20,59,56,3
0.00024751011661556334,0.002523528463451017,0.023565106656182288,0.30892355515543257,22,20,59,59,3
0.00019397758318267792,0.002872896716359021,0.02198189422062615,0.33457274305100865,14,20,62,55,3
0.00021972350751719747,0.0033938688068481182,0.02702470689361526,0.4101528728490317,18,24,66,58,3
0.0002555492527147615,0.0034851658075035936,0.031002564069026264,0.43421495242175184,24,26,60,63,3
0.0003146060825552266,0.003475617261642783,0.036446258793523284,0.4284838789969529,26,26,57,63,3
0.0003143070727519867,0.002681262213896562,0.0362184149415359,0.38696990274695153,26,30,60,64,3
0.0003435151653546431,0.0026654695708749248,0.03899941447078046,0.37903684592611697,30,36,63,63,3
0.0003817752420345178,0.0024689518178453405,0.03930808163922047,0.3527593634490554,24,30,65,66,3
0.00037656662422855274,0.002626661794246889,0.04103388444324999,0.36114853654971374,22,24,60,63,3
0.0003841582868267394,0.0026498225276237793,0.04257389994845385,0.3770156668746003,18,24,65,65,3
0.00044697694898749966,0.0026886304797371753,0.04299364078042061,0.3838289600760555,18,22,55,66,3
0.0004426588141779052,0.002935980291460127,0.04354662909306192,0.3869456367109366,16,22,51,63,3
0.00040356970811949625,0.0022623490858122205,0.04093782541628725,0.3527565471893524,20,28,52,70,3
0.0003629087831903953,0.0023803776876070927,0.040038586619177266,0.35379799274851875,32,26,59,69,3
0.00037799314272520673,0.0022715039485446545,0.041338845288228156,0.35561216388331607,28,30,55,67,3
0.00038819567420625845,0.002005282667450766,0.04363055129522779,0.3481185184689125,28,32,61,71,3
0.00039349302596217205,0.002302500288642856,0.04200028590818843,0.39185180294646643,22,32,62,72,3
0.00040580855314278295,0.0029642911412191154,0.04163573989433411,0.4194558718867223,20,24,60,71,3
0.0003963810594944529,0.002965160740260334,0.04335125508556281,0.4561247369912415,20,30,67,65,3
0.0003658349640194079,0.0027317181458440276,0.0421390287363429,0.4533269115100667,24,30,68,67,3
0.0003553049711385559,0.002566544702808583,0.04361437107369369,0.42557571904484826,22,28,62,71,3
0.0003321702976277264,0.0026529731896892932,0.04033152297394175,0.36755599532107625,22,26,68,77,3
0.00030352300660559345,0.0020116043550270804,0.03892020770144131,0.31391928935010854,26,34,62,76,3
0.0003088978227143184,0.002234197667847824,0.03812834509188137,0.3145007540757062,28,36,67,75,3
0.0002670921411626024,0.001924606387171369,0.03247876943969407,0.28433718074190806,26,34,68,77,3
0.0002718575651211315,0.002019842135946584,0.03408698037578125,0.32536825458156776,30,32,74,78,3
0.0002812510921377942,0.0022485115441927433,0.033396166276134544,0.35352023644452596,24,34,75,83,3
0.0003331284089309649,0.002734208528226546,0.03824836878682636,0.41251551804509934,24,36,65,72,3
0.0003912671509848158,0.003350422997444037,0.04323067077552435,0.4885829485245323,28,26,60,61,3
0.00041654989555028936,0.0036765028117139824,0.044036287833314314,0.4995979756470299,24,28,56,65,3
0.0004315852096327835,0.003717651168211512,0.046747028006852945,0.4947755743964285,22,24,58,61,3
0.00043625574874129095,0.0033314457728707155,0.050775004217733836,0.48295199929708976,24,30,63,61,3
0.00045515311005394894,0.0033186039230287995,0.05233696056585366,0.46799516995218104,24,24,61,68,3
0.00041459769556611355,0.0029955552703238926,0.050980663951825614,0.4536829265481243,24,30,61,71,3
0.00040318169288172857,0.0029125104637366377,0.04653848643863831,0.4471461172468605,24,30,67,69,3
0.0003133521284848387,0.0025999620023306903,0.03632162412282602,0.39846936947221956,24,34,76,64,3
0.00034241267692308204,0.002526890110489756,0.0348867818824656,0.3783870648044804,22,36,71,65,3
0.00034090703180035244,0.002307308139313009,0.03743964612624604,0.3589798806226933,24,34,65,66,3
2.9020636205559876e-05,8.081120570670357e-05,0.003453366841783226,0.009870620656207566,28,10,95,79,4
2.9825909625385994e-05,3.8287457391410264e-05,0.0033250445931250075,0.004843132603594589,30,18,93,91,4
2.9701222841022435e-05,2.770832988320557e-05,0.0031591488843272916,0.003576813959437685,37,24,94,105,4
2.891912779930472e-05,2.9477592552616714e-05,0.0031158302880581667,0.0038928851238878154,32,26,91,103,4
2.515578060560497e-05,2.985581164916298e-05,0.003229596928603175,0.0034161560462827915,43,24,95,92,4
2.3776594161580045e-05,2.4407706803332352e-05,0.003522132183540606,0.0031097346658435663,42,32,94,95,4
3.632140265628767e-05,2.782144948259857e-05,0.005104001749198245,0.003329600552656252,22,34,90,85,4
4.34523201845098e-05,2.7728932865796674e-05,0.005521637029256661,0.0030445947744769217,28,18,84,81,4
4.20805822442727e-05,2.3418748578503057e-05,0.005367180292383733,0.003031203960210973,26,18,92,83,4
5.7259072267554356e-05,2.211877902550827e-05,0.007248042428086906,0.0028506494142305954,14,20,86,92,4
5.541104581205627e-05,2.13010744154523e-05,0.0074999939532390154,0.002899831653933777,14,30,89,94,4
5.566890797781714e-05,2.144878702360378e-05,0.007084587003768707,0.0029150661489398453,14,22,92,95,4
5.71104846415433e-05,2.3309583105604017e-05,0.007424762171674974,0.0030128263722757043,20,24,85,97,4
6.037968735607869e-05,2.336205473940828e-05,0.007185225658334392,0.0031421732307702955,22,26,76,97,4
5.834651847736315e-05,2.1451772076290018e-05,0.008008868555189749,0.0031138931595626963,22,36,76,92,4
5.554314816004045e-05,2.1940905700502545e-05,0.007932188403757288,0.003152414700242404,16,32,87,93,4
5.192643017948395e-05,2.244069242208919e-05,0.007886028077197663,0.0032594392615223093,16,42,85,92,4
5.259982947320955e-05,2.204230343227658e-05,0.0072625727069006805,0.0032363382095532954,12,40,92,86,4
0.0001159790695060185,0.00011962363785305632,0.009470665892860459,0.007869079849083985,6,6,70,74,4
0.00045504629679916605,0.0003579290254161088,0.02751394131857007,0.024010020982775583,8,6,53,49,4
0.000484689239457525,0.0004384398238545615,0.029145036379935853,0.04261619985928964,8,10,62,55,4
0.00041710989749145527,0.0005189242965784977,0.02511586195611743,0.057536071886162214,6,14,64,60,4
0.00039826435337527897,0.0006580190740012718,0.025324627689240684,0.0725364824009709,7,18,61,70,4
5.502319351869447e-05,0.0005677474394606803,0.008363653089345006,0.06981599453127928,30,22,92,72,4
5.370669941029169e-05,0.000492098493779607,0.008283832564178608,0.061354610369125845,32,24,91,68,4
5.973586397539612e-05,0.0004962913686389938,0.008544128466535883,0.060774363731163634,32,24,85,69,4
6.338045912932525e-05,0.0005298648982250386,0.008611430293224769,0.06225454661853352,28,24,86,64,4
5.896346819455325e-05,0.0004847447131414999,0.009124565103232984,0.06448294197110468,28,22,76,66,4
5.5075774610344316e-05,0.0004826589004400687,0.009146262114131718,0.06632611810776438,34,22,80,69,4
5.325860947883114e-05,0.00041329643950174333,0.009097724085044554,0.058480585638151575,26,26,84,70,4
4.7185373450833425e-05,0.0003645326586411273,0.008487530601364729,0.051188138659493815,36,28,83,71,4
5.133303060120561e-05,0.000327432282464746,0.00848915645501001,0.047014847979322226,34,32,87,69,4
5.13258416469579e-05,0.00034221128713529046,0.007917994589094987,0.04903800219358992,32,28,87,61,4
5.540646934975393e-05,0.0003857693291560269,0.008463332295609752,0.05230499081860777,34,26,86,55,4
5.1373287225746704e-05,0.0003610497922045004,0.007433108985566462,0.04687768412355711,26,28,79,53,4
4.9455149465015695e-05,0.00039071282655356624,0.0076151746122416035,0.04771830442374243,30,18,83,60,4
4.273032265921661e-05,0.0003257758909706474,0.007162220829324585,0.03816813799509402,32,14,86,73,4
4.753562973661519e-05,0.00031609676205264254,0.007398225655024409,0.03827474256382214,38,16,78,65,4
4.3770898203322215e-05,0.000308929443232579,0.00735352374830659,0.03888513267882979,40,14,87,68,4
3.983251431442516e-05,0.00026987166766889227,0.007084519372193317,0.035644396848851526,40,24,88,71,4
4.17881875973909e-05,0.00029997360348552233,0.007319079528459837,0.03490591208646267,32,22,88,74,4
4.5214574160420317e-05,0.0003326597265745959,0.007137239870094605,0.034564794191423776,24,18,92,61,4
4.582249305441876e-05,0.0003338129675052969,0.0070900771637565215,0.03249630860276544,26,12,84,63,4
4.453167202828575e-05,0.0003492939449801041,0.006723361389619385,0.03900705534707236,29,12,87,57,4
4.491328059441448e-05,0.0003129655124370654,0.006697720230608839,0.038007829770526816,28,14,86,61,4
4.017118395193835e-05,0.0002800248665243522,0.0063556933686247305,0.03734971506655302,28,18,79,78,4
4.350483118253262e-05,0.00034601747026306466,0.006842506402479985,0.04465692970269045,26,16,86,75,4
4.358285089915858e-05,0.0003239520373899315,0.0070419330909499795,0.043145574314278234,30,20,85,77,4
4.41607236996369e-05,0.00034184666073503866,0.00704240729505768,0.04718465528492166,36,24,82,79,4
0.0005872787132423832,0.001889861031736188,0.07580285465460132,0.24218541047506661,30,18,68,60,0
0.0005565419202675175,0.0017182691377412788,0.07206741175943222,0.21633423675331406,30,24,69,66,0
0.0006542503644907169,0.0017094418721118388,0.08008186033046713,0.22751633025313936,22,14,65,64,0
0.0006432602965075428,0.001708126115782027,0.08065523172957768,0.2157709016092227,14,11,65,66,0
0.0006521870637748246,0.0017382644139752007,0.08297182152708146,0.22406221451353084,18,18,70,64,0
0.000694815079508999,0.001880748554509117,0.0927764516718439,0.24979527621140143,18,14,73,69,0
0.0007311776501541557,0.0022253109274272174,0.09417250428938403,0.26276289278349463,22,20,78,65,0
0.0007266249838509397,0.0024564615934498514,0.0993557634282258,0.27861937270270654,24,14,73,67,0
0.0007289024607367544,0.002448243305319747,0.09941341166294612,0.2770130487444885,24,14,72,62,0
0.0007968583751792427,0.002584853454316069,0.09503403819443179,0.30329169120991756,30,16,71,56,0
0.0007514791516162061,0.0025187539499246844,0.09380215149548461,0.31050478533223264,26,18,70,58,0
0.0006791751949137022,0.0021861804476351063,0.08441576581310158,0.2868582305069395,26,20,77,61,0
0.0006993384906202869,0.0022328076763136204,0.08825230800470676,0.2934654202206275,24,24,71,65,0
0.0006880213410846723,0.002029224437969263,0.08867226605730362,0.25392992426069266,22,26,70,71,0
0.0006818872953664527,0.0018262108682917913,0.08947248203233307,0.2347743009476014,24,24,66,72,0
0.0006794655894857794,0.0018344711382323744,0.09075564625746751,0.22301305908348973,26,22,76,68,0
0.00059986075238736,0.0016351120411197794,0.0836453575501212,0.2049795413494742,24,22,78,66,0
0.0006388936733555028,0.0018990518466955719,0.08010542499197315,0.20672203023662036,24,26,74,69,0
0.0006129205659391689,0.0018220463816342914,0.07706542058826651,0.20592658847573517,34,24,79,67,0
0.0005877481107951158,0.0023126857742260245,0.07792150590627911,0.2378870477437396,36,22,78,57,0
0.0005899944171146441,0.002263250726958525,0.0835723919130761,0.25512706256035783,32,24,78,59,0
0.0005038489455626517,0.0022564376037663117,0.07572544027696478,0.2703575766889561,32,26,81,56,0
0.00051540008920039,0.002055254223601395,0.07580296841060355,0.2651731591860104,30,24,82,58,0
0.0005921340020491673,0.002105579562491882,0.0714210833777523,0.27077348102612003,26,30,81,62,0
0.0012585374275508637,0.0007690978274775183,0.18356441843635912,0.0903772121294235,20,14,64,61,1
0.0010885242596149851,0.0007360504001714434,0.16430325781953495,0.08578501694291035,14,28,60,63,1
0.0010132570878862443,0.0007874518781822904,0.14345896887443146,0.08934107361084168,12,24,60,64,1
0.0009276032299287622,0.0006817553834004312,0.12590662078771017,0.08083687623749253,18,26,63,65,1
0.0007571059468249827,0.0007007273499313499,0.10453065495306436,0.08618527834767904,24,22,59,67,1
0.0007522050413941024,0.0006659303803305791,0.09734759164926723,0.08715695398537822,30,20,59,63,1
0.0006103371888627975,0.0007233205189631399,0.07883315274109297,0.09211223372596651,30,20,57,66,1
0.0007778940676629136,0.0009293237511754295,0.08743207030195164,0.10790472150561144,32,18,58,63,1
0.0008937985810180175,0.0009154399446513611,0.10488797410306776,0.1090511433780929,30,22,68,65,1
0.000738741613871128,0.0011540270281437406,0.09247152584640687,0.12983592525091023,28,22,71,66,1
0.0006482304735739194,0.0010606688534417275,0.08051153713130464,0.11926812221163637,28,22,70,63,1
0.00044919707646975086,0.000958938162163782,0.06397315220878483,0.12119191100343221,28,28,72,62,1
0.000330725781304979,0.0009806940168381774,0.04482654712099568,0.12178044925801206,24,20,72,63,1
0.00041021174304039127,0.0009104961418606419,0.053499735412036994,0.10828788477351722,22,20,69,64,1
0.0004072689722788317,0.0009465077621548583,0.05325904521465603,0.1179846672605923,24,20,78,66,1
0.0003896714355991262,0.0008189575867846428,0.04829794950353632,0.10219172376064628,20,20,73,73,1
0.0003982627588791848,0.0006505981903829278,0.05252111146550099,0.08519930250316865,28,22,75,79,1
0.00040843734440540143,0.0006280948710371801,0.051473673447491826,0.08532233716045909,26,22,69,67,1
0.0004992864384389208,0.0006971816839286326,0.0644080860121302,0.09602031298721725,28,28,66,67,1
0.0005293482797798155,0.0008514543384289526,0.06768235141667375,0.11642239763926554,30,28,60,64,1
0.0005241584905076335,0.0009019804217659749,0.07457035157953001,0.13131937382857164,34,20,69,64,1
0.0005013239223408395,0.0009285309799385831,0.07298178057362788,0.13176161800820044,30,22,68,63,1
0.0004923595061911455,0.0009463240820619901,0.07262521550478761,0.12423434406993122,26,26,69,61,1
0.0005687682390310661,0.0009568065758751233,0.07812405580479424,0.12240553223599733,26,24,64,60,1
0.0011128697445401438,0.00032901692173842827,0.15633080668776717,0.046854131156222785,10,24,76,81,2
0.0011618442859889257,0.00035239772972887,0.17301730516859676,0.05303720335047145,16,20,78,80,2
0.0011121741557509987,0.0002959913667085307,0.1782927723261088,0.052563374004930996,18,20,81,83,2
0.0010955568680848938,0.00029785009280252603,0.18687514171646985,0.05350694980339962,26,22,80,85,2
0.0011479880195486326,0.0002850520010683286,0.18689533677088838,0.052227411490657606,30,14,87,90,2
0.0010439540411310959,0.0002682265916791799,0.1878071721045952,0.0500768896800597,20,20,87,86,2
0.0012201213069194922,0.0002622413629601552,0.20577188193576118,0.05056350854072401,20,20,88,89,2
0.001319544031325597,0.000245573711207797,0.22334087263720087,0.04979959196045817,18,18,82,85,2
0.001412723949378661,0.00024224882782088435,0.2388044024425101,0.045773370946695334,22,32,77,87,2
0.001372549099995708,0.0002384630811087812,0.24683366393138098,0.04530663774882757,34,30,79,85,2
0.0012858835392818273,0.00021061601676115912,0.22741985794232406,0.03941167396900426,36,30,82,90,2
0.0012002957174097632,0.00020822165222077543,0.21155485875367525,0.03967265948775393,40,30,84,90,2
0.0010638549311941924,0.00019770654294210026,0.18238020511012001,0.04138171671451339,34,26,87,88,2
0.0010379870297924079,0.00020289306607022267,0.17006325038848916,0.039272212202690907,28,30,84,89,2
0.0010555073045241698,0.00023007468056192133,0.16067991777545407,0.04378239678291409,34,30,86,83,2
0.0009246084179534585,0.0002226313695015477,0.14389365470828325,0.04201728378461786,36,32,81,82,2
0.0008939820387679756,0.00022497768514459716,0.14921981547337806,0.040205490802568994,36,36,86,79,2
0.0007827502152410438,0.0002050253235548735,0.13358704493785747,0.03958048604468868,38,44,81,79,2
0.0008413196850032785,0.00020294419874983136,0.1506131802145677,0.039007254163435055,34,40,86,81,2
0.0008803676240831215,0.00021749315651455026,0.15375079738924455,0.04090126941868041,36,38,79,77,2
0.0010147985815267603,0.00022973975474630939,0.17407454924845078,0.04172633921417304,38,32,80,80,2
0.001142302234245525,0.00025776751549302126,0.198946929675268,0.04871921578282151,42,22,82,79,2
0.0013540369758000689,0.00026318822649324655,0.23420749131208699,0.04911387242440507,36,22,80,85,2
0.0016121599958111926,0.00026111566470025504,0.26510618326130914,0.04884346654431081,40,20,80,89,2
0.0003735238031076651,0.0026076212536390066,0.04006575372837261,0.3971841223151154,22,20,56,69,3
0.0003669015208340342,0.002332391572324822,0.042266848171266774,0.3962440507775122,20,18,54,73,3
0.0003686308800938825,0.002374275450721627,0.04148903188168207,0.38022137805464545,18,18,53,75,3
0.0003441067122884597,0.002445416253289232,0.03894105256076109,0.3617601616951764,16,18,55,74,3
0.0003091699555188184,0.002371794166654832,0.035837500808075934,0.35827339785808077,22,26,57,68,3
0.0003277179138244245,0.002435913390217427,0.03638034662606661,0.34936502265359304,24,24,64,68,3
0.0002902960262458328,0.002185554359303179,0.03659672096549425,0.34823955174064286,28,24,63,69,3
0.00034350792067669856,0.002180477106643254,0.03936674514831507,0.3619126758888159,30,26,61,69,3
0.0003073190815124805,0.002021767478478983,0.035905502545363524,0.32776417094413196,32,26,60,74,3
0.00034817232809194326,0.002238934822702868,0.03793885343602832,0.33052720330972096,22,24,58,69,3
0.00034940096244750573,0.0021161301238129316,0.03911945355081586,0.3185757530637874,26,22,54,71,3
0.0003293570916969539,0.00210628541024928,0.03779312749666574,0.3100896972049309,24,28,55,72,3
0.00032251561507797027,0.0021244441944952347,0.039507985955682966,0.30355640312107895,28,30,55,77,3
0.0003175751595263061,0.0022469005994505574,0.039170002827660644,0.3266445967630586,24,26,61,79,3
0.0003656248362385396,0.0022646461910495333,0.038680924977622606,0.3377972999035254,22,32,63,80,3
0.0003901962653512773,0.0023418363753217046,0.036649339455360454,0.3496256555284676,28,34,73,83,3
0.0003538222908614233,0.0025264789725416748,0.037404977469667776,0.3803728161013597,28,32,70,72,3
0.0003159011476973962,0.002135344514002668,0.03833867430996205,0.3558205454602705,32,38,67,81,3
0.0003428800872177331,0.0025390219402495547,0.03859979837165204,0.3813014086013349,30,36,65,75,3
0.0003083879581000205,0.0023106888243408664,0.03674683223741983,0.3606705297921085,32,36,62,71,3
0.0003754727877153401,0.0023950547400435175,0.040362167618817515,0.3561839157721154,26,32,62,71,3
0.0003709648990632015,0.0025011982812864868,0.03928547850738998,0.3598000929586101,32,30,70,70,3
0.00036587228323118096,0.002150823810664006,0.04183871669591424,0.35495949257882875,38,30,67,80,3
0.00037887325970906854,0.0025949776366883896,0.044627115894690005,0.37221799920339865,36,34,65,83,3
2.579273793990662e-05,0.00016998366595472975,0.0040011618464233425,0.018358601770620965,20,18,99,67,4
2.3949456744246605e-05,0.00018029592095311045,0.003914251163063278,0.01894464525940303,20,16,103,78,4
2.3056710324127084e-05,0.0001545519162600685,0.0038315265740296862,0.017218383193365452,26,18,101,74,4
2.536659867061609e-05,0.00018940366128021525,0.003912399982628762,0.019495157073894466,36,20,96,70,4
2.6092914170973506e-05,0.00016680768831501573,0.003908979725243659,0.01626026998615314,34,18,94,71,4
2.6674984768858668e-05,0.00015826286106223342,0.0038246866319311228,0.0158668603844172,38,18,93,71,4
2.545457754074507e-05,0.0001901605113957385,0.003951605877697494,0.021378554313933536,26,24,95,70,4
2.8942683011325732e-05,0.0001603010723221668,0.004075945858506602,0.01846064235407242,32,16,87,75,4
2.775690739230601e-05,0.0001935545070788139,0.0038427223660432146,0.022396614310614002,32,14,91,67,4
2.4815054789408286e-05,0.0001572585615537844,0.003776387113926546,0.020829299334790632,28,10,91,73,4
3.965713362445298e-05,0.00020356808188651566,0.0056134960198058,0.02780842265214118,36,16,99,67,4
4.4484359076608545e-05,0.0002656292698288269,0.006051053440519589,0.03702095563304059,28,12,95,61,4
0.0006953496635702791,0.0003107013110589625,0.04772724038135887,0.03769497336783486,30,16,76,67,4
0.0007352300962017568,0.0005562465511986817,0.05290741836405822,0.0591997102819584,34,18,77,67,4
0.0007082980102366558,0.0005997558824008152,0.05359446935585027,0.05367849262895611,36,18,72,68,4
0.00021662645651565106,0.0005934937010269668,0.030295544367754633,0.053770954202350174,36,18,73,57,4
0.000122712531242949,0.0005849433840025538,0.017672446777922946,0.050956583508835925,36,18,83,49,4
0.00010659785492667344,0.0003057820783931922,0.012366659464737546,0.0304342237174826,38,18,69,61,4
6.398753864343392e-05,0.000281643049202042,0.008499759001237976,0.026106987645480327,34,18,81,66,4
4.799978327283817e-05,0.00018398722020742227,0.006411938616761531,0.017680703054500268,28,20,87,66,4
4.4395748285603766e-05,0.0002300326137715487,0.005131974293871508,0.02300366209254629,26,24,83,61,4
3.7277520289959596e-05,0.0002305798960776113,0.0038012874812790596,0.024343417643519605,32,18,87,60,4
3.714109012756113e-05,0.000204155312491901,0.003840620394216908,0.021627444809557604,30,18,85,65,4
3.3769210894509926e-05,0.0001744676667537934,0.003448514661871164,0.017611337234234227,32,18,88,63,4
