f1ch1,f1ch2,f2ch1,f2ch2,f3ch1,f3ch2,f4ch1,f4ch2,Category
0.0013352823298691562,0.0008734421377055915,0.1661631259826567,0.10741345172270997,26,22,64,77,0
0.001544166904622677,0.0009213371222455233,0.20506640961016365,0.13080229184440179,30,26,68,78,0
0.0015721303778065175,0.000996851743575563,0.21652229190442895,0.1524486424085639,28,30,62,72,0
0.0015407494929951394,0.0010708084410634034,0.2153895480920213,0.1608353782645449,36,30,69,72,0
0.0015149952703204395,0.0010525301106577615,0.23481988605426324,0.1733191832482707,34,34,66,73,0
0.001473218584879626,0.0011380117079657513,0.23579049126159796,0.18710150521302918,32,30,70,76,0
0.0014344386568941217,0.0010239896088915603,0.24480199869445532,0.17775161900397018,36,30,70,82,0
0.00164012230015263,0.0010355065539620744,0.25939838215117095,0.1748519192417941,40,34,69,79,0
0.001607781936940057,0.0009365933692013309,0.24766776447671604,0.1495530024452914,32,36,68,77,0
0.0016293445217320194,0.0009097266206555099,0.24367753174794424,0.13997860949686056,34,32,73,77,0
0.0017447495004546576,0.0008018818624600339,0.2572327101311736,0.13131943767918283,36,36,69,73,0
0.0016662994795830946,0.0007704221518284798,0.2481444826628617,0.11825312246931374,36,34,73,80,0
0.0016830734110530687,0.0007199047532463984,0.2463454616736201,0.12248341915748809,34,38,77,79,0
0.0017572977657486105,0.0006195440667122804,0.24824928391007484,0.11029983691346616,37,36,68,76,0
0.0016000865925728217,0.000578017523391479,0.2338935994459236,0.1012024251818096,38,30,72,74,0
0.0015165745166310118,0.0005196536033817386,0.2185544675003894,0.08936685463811017,37,30,70,76,0
0.0013659351047828256,0.00048762583947875045,0.20258534591558824,0.07695885651845938,34,28,71,80,0
0.0013964484912523099,0.0004920218417530691,0.20419755302787343,0.0767103423645691,35,34,77,85,0
0.0012559232208392804,0.0004376116493005251,0.19008350235764962,0.06807177570912602,32,30,78,87,0
0.001341852345776732,0.0004477371595071252,0.191236427631374,0.06789577563822931,35,34,78,79,0
0.0013480662192041693,0.0004942095836529881,0.2017686061672125,0.0696604138816614,32,28,76,79,0
0.0014418521172198853,0.0004702840683882077,0.2120109912541718,0.06813970572566276,31,24,76,82,0
0.0014576293022913142,0.0005440849886834759,0.21560583506592773,0.07880805632551206,36,34,72,86,0
0.001508640889186266,0.0004456297997281514,0.21202867433055125,0.07677291242678916,27,30,69,81,0
0.0014371235632779098,0.0004666238059246253,0.20067544045397842,0.08563727090700192,30,34,73,82,0
0.001383988555208958,0.000443616595621169,0.17213094114892447,0.07493436096515711,27,36,73,79,0
0.0013761426700804602,0.00038880962181549747,0.17656758582330342,0.06436794757297619,30,28,68,78,0
0.0013207057310203041,0.00042665043428635323,0.17288574493186848,0.06911518484913931,35,30,76,81,0
0.0013325115652672132,0.0003905304138895009,0.1809436949414819,0.05455510583140849,36,24,66,76,0
0.001234883709301174,0.00040259822296860625,0.17609230331060857,0.05503659353057343,37,36,75,83,0
0.0012155052529136826,0.0005203850330278196,0.1745642765820113,0.07835931788539911,32,26,80,79,0
0.001429646616918882,0.000486658176401129,0.19962825629787773,0.0717989996245848,37,34,80,77,0
0.0014233503428978313,0.0004930845580174346,0.2091956551839792,0.07845218868605808,36,30,77,75,0
0.0014615627094604355,0.0004613511812365454,0.22597439307695463,0.0739270139677968,38,30,71,78,0
0.001515477804043249,0.00035519340143062795,0.21729673797375923,0.05653935227571436,30,28,69,77,0
0.0014682852761270055,0.000376529722060488,0.19363349636384197,0.05973013561369993,31,30,66,80,0
0.0013675525786678965,0.00034755441170419117,0.16720930922045904,0.05312503013606098,22,28,69,75,0
0.0011656873019469179,0.00035378769350296555,0.14680073363895577,0.06113697794066165,31,32,74,76,0
0.0012440711625579274,0.00038749857978495497,0.16707033016372896,0.06667947493891684,32,34,67,74,0
0.001225272677267749,0.0009436258772814867,0.16238573866849645,0.09229189397920057,37,20,70,70,0
0.0012779751032554406,0.0010172617869741414,0.16154057578112938,0.10643233175642024,30,20,67,71,0
0.0011588838222170795,0.0010701436701548008,0.16067706417354946,0.11174316822527061,31,24,72,67,0
0.0011688082046864777,0.0006722780565386354,0.14581859903955877,0.0963898813969488,26,26,67,73,0
0.0011947809638182857,0.000612878958531839,0.15550831526734415,0.08908389150518016,34,32,68,68,0
0.0011109739416422617,0.000531566278975949,0.15448721985219688,0.08228774038890652,34,34,75,72,0
0.0011063335805956633,0.0004925961228154127,0.15595827809181598,0.07593450316545003,33,38,76,71,0
0.001001212067963635,0.0005079968203260961,0.15052772030482006,0.06913827322858625,32,32,78,68,0
0.0010617928683915431,0.00045832308874304043,0.14677229174178455,0.06766289961710098,39,32,73,72,0
0.001076015116658588,0.00045253732230281793,0.11482656069224162,0.04526236670684494,19,20,50,52,1
0.0019165337763495122,0.0006775324926574149,0.20609291015024103,0.07313001693436662,20,16,46,62,1
0.0024141497803573265,0.0007369978875004604,0.2721123975576631,0.0875246840075501,26,24,56,60,1
0.0025736813628504033,0.0008190991691711114,0.30473568776068766,0.10011672230525231,30,28,67,70,1
0.002416565187414207,0.0007148988584759356,0.3048548381375157,0.0962197538975836,32,32,68,70,1
0.0021757336758569962,0.0006212988503190084,0.28576873190157265,0.08392687250734238,32,36,73,72,1
0.0022177322823604233,0.0005652554569930949,0.29601888222110284,0.08819487464163907,34,38,71,71,1
0.0021794113219335567,0.0005482587507299801,0.3171523319516424,0.08289607773137894,34,38,70,67,1
0.002647431970455391,0.0005605487002325031,0.342697385646826,0.07325372408603766,27,42,66,66,1
0.002637817204264473,0.0005266047892521944,0.3575466035460243,0.07235209564596609,36,36,60,69,1
0.002740416255103602,0.0005891077658568063,0.3627964646648053,0.07221623725287821,34,30,61,68,1
0.0026962894186761564,0.0006076177523154665,0.38012566693219935,0.08011291862366426,32,32,64,70,1
0.002230954365096458,0.0006414966749070563,0.3322199388016823,0.08381819859078249,30,29,67,72,1
0.0021542068584795232,0.0006388704607794326,0.3268765694629722,0.08297000900226725,32,26,69,69,1
0.002144116298163289,0.0007006852879645203,0.32328372418930984,0.0891649391351975,34,36,69,67,1
0.002018384199782658,0.000595021702658607,0.30774583217005985,0.08486810664083566,36,30,66,68,1
0.00211647101973813,0.0006325755264148146,0.3111504979491374,0.09205388336543144,36,32,66,71,1
0.0023706921969311803,0.0006466335727070268,0.33304860058237135,0.09522128944538084,34,32,60,71,1
0.0023784120715548292,0.0005881035241647006,0.31040971249950705,0.08645190405726415,30,36,62,76,1
0.0022968135627813705,0.0005485388796669197,0.2942489545389023,0.0887285731129434,26,38,61,79,1
0.0022652702404204294,0.0005641610229387913,0.32140209277340687,0.0824365178638537,26,37,65,79,1
0.00205848494879496,0.0005115497315022681,0.3042895733161756,0.08023844974378125,38,30,62,81,1
0.002101006203389429,0.0005497005913171662,0.3123216446078922,0.08576137140391027,34,36,65,72,1
0.0023825680545203048,0.0005088981433170329,0.3525191311292211,0.0789190025050798,32,34,69,75,1
0.0022107166215359912,0.000506728594838595,0.3221272569966769,0.07677092888449168,32,32,66,75,1
0.0021131827166705045,0.0005332427516143745,0.30372893023495573,0.08287557385834833,36,32,64,69,1
0.002173218928760903,0.0005187564776202276,0.3235338818812934,0.07921286372162092,36,30,70,64,1
0.0018613097671680509,0.0005187380309713243,0.2848623062966257,0.08029228465105755,36,32,67,63,1
0.0019445241022044881,0.0005532236608515707,0.2889626541064326,0.08201311207395835,38,30,70,63,1
0.0021690095639362627,0.000503454389078855,0.29865437642237763,0.07499714675568694,26,30,66,73,1
0.0021212710340809127,0.0005982961371178204,0.28508545721541195,0.0809015338496507,34,26,56,68,1
0.0018830903866968662,0.0006556057915978973,0.27088849537952897,0.08629248044539715,28,28,62,70,1
0.001990744929582048,0.0007343994411932964,0.2805656272964223,0.09548735003390982,22,26,64,65,1
0.0016496148146889372,0.0007851855016099346,0.25684221974659427,0.10217332979849385,20,28,72,62,1
0.0018278133199456943,0.0007619689085704154,0.27727884277535253,0.09677968703073278,34,32,68,65,1
0.001997284767298232,0.0006711027542750529,0.29546252610066975,0.08842383824295008,38,30,67,66,1
0.0019676537958810323,0.0005737352006734118,0.27645565944830813,0.07874892648576055,40,32,67,67,1
0.002175841775289341,0.0005191156690506662,0.3037160387996868,0.07221167987568572,32,26,59,65,1
0.0021036626910769947,0.00046195924925486595,0.2951532802505657,0.06336486185987542,32,33,61,66,1
0.002610639627943524,0.0008170628746031558,0.36775242249671325,0.08598181509208608,28,20,60,65,1
0.002880586262185209,0.0008299475703340228,0.3882976525919954,0.0841228741109814,40,22,72,62,1
0.0030466459171087502,0.0008357468518413558,0.4019919019591194,0.08074252159134587,32,20,74,67,1
0.0030522368207498546,0.0006426663585549899,0.3740831030882603,0.07435538222031329,30,24,68,70,1
0.0026153896650133097,0.0005057673040295001,0.32340050244199964,0.06866219024715649,30,32,68,73,1
0.002650443338294902,0.0005161070292247276,0.340080827487999,0.06839106150234026,28,28,66,70,1
0.002473086636591271,0.0005669687656216124,0.31144019788546845,0.07178493747915045,32,28,71,66,1
0.002496524665761502,0.0005647455868333156,0.3379277571519353,0.07260575033608574,28,26,65,61,1
0.0025529903726870832,0.0005034025533951746,0.34806912692760417,0.05991975462265112,26,30,66,66,1
0.0006643904948300873,0.0018050950717247991,0.050632981118713186,0.18750238311703088,20,26,63,56,2
0.00075033155361976,0.0018278647223187203,0.05908201806183,0.2528056985445057,22,30,60,71,2
0.0007107742264723263,0.0022513116434478074,0.06997746065520759,0.3206904016960048,22,34,74,74,2
0.0007137031120030779,0.0024998128925990686,0.07652786948448495,0.3796317300628584,24,38,81,82,2
0.0006977132138123321,0.002836970323869427,0.08474469549820736,0.4340752323161955,30,38,77,87,2
0.0007031072509761485,0.002626079337316399,0.08277997257239154,0.4703592110755794,34,42,86,83,2
0.0006994936583004934,0.002430944665862559,0.08496582798446399,0.4789857187415583,32,46,84,86,2
0.0007296548814650506,0.0024104200996928975,0.08355366051639315,0.4543123784297922,24,40,80,84,2
0.0006220520562594849,0.0023127160193234944,0.0757677072427126,0.43245308869037763,30,42,84,87,2
0.0006307485399855337,0.002119067895874767,0.07368277462711817,0.3743272184894415,28,38,76,86,2
0.0006362787617235527,0.0021262614050898475,0.06851202339269095,0.3611828122637811,26,40,80,87,2
0.0006324815094470319,0.0021167941755438394,0.06712058111545537,0.36495910278139465,28,34,79,85,2
0.0006119731574256836,0.0020793890495445044,0.06798018410515327,0.33732503465475283,26,38,78,82,2
0.0006312539802055078,0.001921694270386788,0.06664599209391643,0.34095706470937254,30,40,86,88,2
0.0006075685234938271,0.0018441426581689796,0.061783733167892554,0.3028677120814063,28,40,82,86,2
0.0005989603472198624,0.0016090900859111854,0.06200687779363287,0.27249441601997787,28,40,82,90,2
0.0006047124620807089,0.001624302498734716,0.06501346840124178,0.2848510656437185,32,40,81,89,2
0.0006206169846895154,0.0016864328306717444,0.06658448407569147,0.2843342090941531,34,38,80,92,2
0.0006261306516958946,0.0017985623381647972,0.06836812414702176,0.2968550319828771,28,40,78,89,2
0.0006168954772786064,0.0018477204389304907,0.06617184508664277,0.2962479411620379,24,30,83,86,2
0.0005972917259614551,0.0015999312251633799,0.06327594425224674,0.2722183840899173,30,34,74,90,2
0.0005928672458529055,0.001495399051452298,0.05975525364672914,0.2682157292517693,26,34,75,90,2
0.0005786364342140289,0.0012422866896104462,0.055764536796430016,0.2604144426413526,30,48,72,97,2
0.0006082927431929739,0.0011888725949290178,0.055772635735104416,0.25699589672947043,22,50,74,94,2
0.0005740092735740004,0.00124014173513624,0.05633738950560755,0.25118073566448956,36,50,73,90,2
0.0006061713322363716,0.0012160426181447687,0.055335764795819614,0.23565454706006744,24,46,75,89,2
0.0005837818202403982,0.0011378394163349746,0.05559097567869824,0.21361305773070996,32,48,63,92,2
0.000604220119736001,0.0011637449435513768,0.05316508432583573,0.2182241835974918,24,50,60,96,2
0.0005904684855398602,0.0011264156647128052,0.051571445162502255,0.2014467049225659,24,52,63,99,2
0.0006180814582930575,0.0011285039049270384,0.05017206254323403,0.19605484439370366,26,42,70,91,2
0.0005734191099465533,0.0010003767678344764,0.04952691881345592,0.19758540900101385,26,48,68,94,2
0.0006016129849709716,0.0009730572101079385,0.04964818150293111,0.18294663766666663,22,42,67,96,2
0.000559329334273458,0.001095999966012588,0.05077939936990076,0.19669059888604648,24,42,68,97,2
0.0006139778408969526,0.001075214941318058,0.049584917210938856,0.1966211726430205,22,38,69,92,2
0.0005556710091994517,0.0012142129736688726,0.05020987494313394,0.22972135665952922,24,46,73,93,2
0.0006006280235061663,0.0012488406982561601,0.048679745908045795,0.24536461127323098,22,46,66,85,2
0.0005566145897476518,0.001254712339942907,0.04567533676878397,0.2553276262015325,22,46,58,84,2
0.0005710995114500593,0.0012687485480630818,0.04535976517232938,0.2497794679044402,18,46,58,85,2
0.0005596229697807599,0.0011612529491190834,0.04601666726288874,0.2242175251485786,20,40,62,83,2
0.0008928864879241817,0.0010905509112310785,0.062445439061389316,0.18602739187738876,16,38,59,77,2
0.0008876068927798647,0.0010063308672841732,0.0670162969620491,0.1525982864979794,22,34,52,77,2
0.000925002712062202,0.0011479558199477683,0.06733918240063128,0.15713577118731997,14,28,54,76,2
0.0005958755960681431,0.0012180716389182454,0.0527380276443817,0.16295335183485582,24,26,64,80,2
0.0006103721997275667,0.0014907938971276897,0.05703427751097174,0.21441989976859446,22,30,70,81,2
0.0005995321277124916,0.001692511656750622,0.06310686670485698,0.2631158073990122,30,38,67,87,2
0.0005910631186755089,0.001892961584020036,0.06786282566758353,0.3013296980957837,32,34,74,86,2
0.0006212794589376126,0.001842045390275508,0.07221068929521811,0.32139430940906794,34,40,74,89,2
0.0006334623693076695,0.0019444270938105148,0.07349195489333785,0.3333184905444972,28,36,80,90,2
0.0025155016600690405,0.00024374523807192618,0.3127677482082154,0.018417769405705015,28,21,60,52,3
0.0031317376569597525,0.0002405216907280976,0.42841725578662676,0.019788791094663333,30,14,59,60,3
0.0035131516544178606,0.00022744688096335605,0.5346925051445136,0.01958796241395361,32,23,64,67,3
0.0037702263139274567,0.00024041590103349928,0.565895421924253,0.021548710132391673,38,18,69,67,3
0.004012008977292907,0.000237822871405848,0.6099429905952346,0.021379845412663943,42,24,65,77,3
0.0038773873243738216,0.0003532361181472242,0.6556104683071607,0.025133819780799174,40,18,71,77,3
0.0037052847502619217,0.0003776040007392268,0.6027063588491542,0.02727252890452285,40,27,73,70,3
0.003696948405859026,0.00041871043869841856,0.5890266357671133,0.028910054587895948,34,24,74,64,3
0.0038894957713546474,0.000344567243725768,0.6223133713560931,0.029551000724927126,36,23,75,56,3
0.0036727303496713304,0.00030367038699645775,0.5936733514701111,0.02812712193765417,36,22,74,60,3
0.0034248637041163744,0.0003164407371524494,0.5518524800076854,0.028610440304893684,38,28,74,57,3
0.0032022877676770294,0.00028197926998948104,0.5115178380652996,0.025728429686457884,34,20,70,63,3
0.0027288116963322005,0.00028821738144818826,0.44890973405411605,0.02599714556814205,34,20,79,60,3
0.002586171063637431,0.0002682081428532224,0.40313406653328593,0.02580818936625516,34,18,73,61,3
0.0028330960060275407,0.0003239362195280135,0.45038342011494625,0.027650857060339575,38,24,74,60,3
0.0032273016071423465,0.0003659311816311384,0.5160468313135789,0.031292969122621986,40,24,70,67,3
0.0034254539570872443,0.00039150724417930517,0.5068064315758498,0.036483637165033014,34,21,68,68,3
0.00330616725105716,0.00041906390653956196,0.4965761170159547,0.03917923738413826,40,18,72,63,3
0.002900217510290748,0.00036180589914988024,0.45974216928714484,0.0386070922019823,38,27,71,69,3
0.0025861118405589973,0.00043370712689397897,0.4042799634156604,0.03851214450446776,34,16,72,69,3
0.002600762179774021,0.0003302677719312188,0.3512569979388537,0.0322239033179195,28,24,76,65,3
0.002126621884222046,0.0003469416764906018,0.31697711838348536,0.032396577461140906,34,20,69,63,3
0.0018903186264058467,0.000343501674085636,0.27170335598229745,0.03122276152659485,26,20,70,64,3
0.0019385716944555031,0.0003180528657666869,0.2603757789337252,0.026470005322573008,26,26,70,68,3
0.00202719190604535,0.00030984843735927086,0.26511298582848425,0.027552002724576054,22,26,71,64,3
0.0017749620228985127,0.0003186094652676387,0.2816000102097725,0.025326282383694724,32,22,75,55,3
0.0017301240776474121,0.000324001376022012,0.2692200991677856,0.02433375344498621,28,20,72,55,3
0.0016933024115354496,0.0003346188601672453,0.25927133381568557,0.025704486647453156,30,18,70,60,3
0.0015044599134217188,0.00031060353541009273,0.2560393258568668,0.02517214368161888,38,22,72,60,3
0.0014117803548226496,0.00034247502475912706,0.2417573609191564,0.025263043017668813,36,24,75,60,3
0.0015631121815346428,0.0003214649509870382,0.2694723931068413,0.0272011651709481,40,26,71,63,3
0.0016659283574731903,0.0003542303289715859,0.2808252464384252,0.029192359437651957,36,20,73,61,3
0.0018609560051324444,0.0003385944669008583,0.28488173139518874,0.028167357904754747,36,24,70,66,3
0.0019556208381410808,0.0003391889150051824,0.30896528514262295,0.02853139168503212,38,20,72,68,3
0.0019578553396731578,0.0003549720120677726,0.3124754554691879,0.029114318578243283,40,24,70,63,3
0.0018137788304211028,0.0003250348252206208,0.29454978626729633,0.02758701499097996,38,24,76,73,3
0.0018267931948990333,0.00033201450907149844,0.31557821152556015,0.028583546820117392,40,22,73,70,3
0.001985495883064008,0.00034966170057629004,0.29678182549096865,0.029187732690523042,32,22,70,65,3
0.0019494274031718751,0.0003475400438195589,0.31281072025737877,0.02990255738310619,34,20,71,61,3
0.0026820548046514615,0.0006215554876759355,0.3883198459391436,0.04083262788414106,26,8,68,54,3
0.0028963264411424766,0.0006154735617409171,0.4215739834461037,0.03983166273911101,30,12,72,59,3
0.0027567462322170906,0.0005980790062087058,0.43353198974472623,0.03788073319653064,28,6,75,61,3
0.002732159725859929,0.0003478604135110842,0.39927231723005835,0.023680482721187456,28,15,68,67,3
0.0021374664837198534,0.00027239438504185405,0.34581518252403126,0.021753932809440407,34,20,77,68,3
0.0024622400426212317,0.00026722035125406883,0.3440078100967094,0.02236845773599262,26,22,75,68,3
0.0028858729376335583,0.00027433701586800503,0.40336956565980897,0.023778851232678706,26,22,67,58,3
0.0034179257849741864,0.0002828605170677179,0.4553559770280173,0.02678029509385786,26,22,68,58,3
0.003599384431477579,0.0002817666979291964,0.4963026575525186,0.027442880153954154,36,22,63,62,3
0.0007614176901493305,0.0002617193865359336,0.052374094419273785,0.019320065867871068,18,12,35,51,4
0.0007698187987407099,0.0002388827804494337,0.05149807277141854,0.016721374341841625,16,15,32,46,4
0.0007412939473527809,0.00024551618102020787,0.05118370701068866,0.015840888527430673,18,10,39,43,4
0.0008061138460487021,0.0002010745081892511,0.046335302433086194,0.013319830774684899,16,15,37,37,4
0.0007435243539185119,0.000198569003314623,0.044951504550636644,0.01259001653567671,16,16,40,44,4
0.0007890267976147314,0.00017593097298245925,0.045149315552675325,0.011586517813438208,12,21,37,45,4
0.0007365618762316951,0.0001545629918642031,0.04606044306496655,0.010861224055156356,18,16,28,49,4
0.0007579820813778833,0.00015609535936846047,0.04762627054603767,0.009781418179326193,18,20,28,47,4
0.0007668145463644211,0.00016296377213673716,0.04573851804657916,0.009417826692720363,16,18,30,40,4
0.0007755387294028483,0.0001645382256564321,0.045563482219257934,0.009657103273850033,18,16,28,45,4
0.0007416605270131415,0.00016786300859480196,0.04426948028136582,0.00980023179569469,20,18,31,44,4
0.0007574683569609672,0.0001610894167083468,0.044350726295870446,0.009616887934107855,18,17,29,42,4
0.0007171839108955001,0.0001664437015310834,0.04341518612616757,0.010042839506217276,18,14,28,41,4
0.0007267966021325575,0.0001585964425692784,0.043819769644056226,0.009783277997935753,14,16,34,38,4
0.0006810211715035954,0.000177317028375484,0.04281046656234972,0.010269750363861706,16,14,30,42,4
0.0007246936073982635,0.00018766545531743805,0.044722198911237576,0.010267390473030689,18,13,32,39,4
0.0007354876997217861,0.00017319369122477325,0.04669066824706897,0.010085015568206675,20,12,30,44,4
0.0007490183761442251,0.00017303856945746456,0.04634386373718162,0.010414394016429853,20,11,30,39,4
0.0007040633546188629,0.00015867361614596554,0.045698899933876054,0.009521094644938666,18,18,29,38,4
0.0007730719588567308,0.00015940369918562673,0.04454883858326488,0.009646766987294466,16,10,27,47,4
0.0007643452065237683,0.00016873298354389894,0.04485375993419942,0.009829675180112787,16,12,23,42,4
0.0007659796896785063,0.00016225025047924717,0.044025692160094096,0.009640455349390254,16,12,28,41,4
0.0007372956344222207,0.000155317137900198,0.04376811098948412,0.009347340427815742,18,14,26,44,4
0.0007440203124211019,0.00016053808787980237,0.04229926199525709,0.010051832593158835,16,12,26,46,4
0.0007158907912637046,0.00018780469602864885,0.042390144944050356,0.010602693275960253,16,12,26,44,4
0.0007402959864069913,0.0001993488737665824,0.04200709206596585,0.01092967055524361,14,11,25,30,4
0.0007376520219053836,0.00021082172664063656,0.0422431987054575,0.011663962848112821,16,10,26,29,4
0.0010433278309148384,0.00034438613866787424,0.06235198744195459,0.019601909041019692,13,8,36,41,4
0.0010204446842817308,0.000608873530421334,0.06382023249572974,0.03459225634875689,16,6,39,81,4
0.001053089309202236,0.0006577878340920319,0.07140782677209595,0.036674927941150556,18,8,39,58,4
0.000751593466331939,0.000509968124291323,0.056627820664132834,0.027261520535820826,18,4,50,51,4
0.000670072663140111,0.00047671534049772995,0.054800016401528144,0.026376194020038674,25,3,48,52,4
0.0005546830032217737,0.00012273589986012067,0.04897478392522787,0.00849575150590257,22,12,50,42,4
0.0005653611732863357,0.00012541204040018942,0.04531752734317803,0.00854825351726601,22,19,44,44,4
0.0005577859375717273,0.00011804852044140507,0.04471274621780137,0.008060692644093138,20,14,46,44,4
0.0005653602732103596,0.00010013580539306588,0.045496143991541,0.0075404834183576365,24,18,38,48,4
0.0005393166790927938,0.00012000773968876929,0.04305187952735373,0.007645503675692682,22,16,38,50,4
0.0005528333321930724,0.00011123484807901454,0.04391316120762617,0.0076604338723721375,22,21,36,48,4
0.0005604046787209927,0.00012289347641613276,0.041054323366519645,0.008048749602989458,18,12,35,50,4
0.0005524821316364387,0.00011354690469492019,0.04090407734082464,0.008133307884368534,20,14,34,50,4
0.0005352671281587181,0.00010351920583168543,0.04069575165142292,0.007607245705751077,22,18,36,54,4
0.0005402449711487771,0.00010182031128576406,0.03974398909901136,0.007731626186663455,22,19,32,48,4
0.0005327155464508713,9.758999824720196e-05,0.038372057377103475,0.0072560546332734325,18,24,30,56,4
0.000534170676842471,0.00010666113702600198,0.0387517453793116,0.007528428178766671,24,16,36,46,4
0.0005268950940180966,0.00012443055217727165,0.038012543370208665,0.007675438019775803,18,14,38,50,4
0.0005457706110354426,0.00010420405692735207,0.03965726664567532,0.00782082960432581,26,17,44,47,4
0.0005439486435484622,0.0001165497564821542,0.03954182130454805,0.007992375645509513,18,14,46,46,4
0.0005325088254957954,0.00010104507113933802,0.037573435567421064,0.007628338986987439,20,18,38,48,4
0.0010432357417099686,0.0003237450996442202,0.12314013926473238,0.04554005858632653,24,32,68,62,0
0.0009125194074148236,0.0003460033616101251,0.11875400826969897,0.042380787214209764,35,28,73,64,0
0.0010778912181711841,0.00027522941467067707,0.13951145460318928,0.03836190986316492,30,28,67,69,0
0.0009051449234047858,0.0002586617366624247,0.1300402535633581,0.03971846901300375,37,31,70,75,0
0.0009064833577546743,0.0003266618441804937,0.12937095353104794,0.047174321668612754,34,26,65,78,0
0.000999330729301108,0.0003289680340034258,0.1441871701437814,0.04936025737174983,32,30,66,75,0
0.0009230561073182768,0.00035584865604497396,0.12529393551780857,0.0509940408244998,28,26,66,73,0
0.0009650775201616822,0.00031831604557370737,0.12334926679194456,0.04891730481776852,27,30,68,69,0
0.0008739673628613582,0.0003224103240456927,0.11817728216533033,0.04849062016013035,26,24,72,70,0
0.0010047870190040063,0.0010725653878054984,0.10801341103106604,0.0889447438973787,20,10,65,76,0
0.0010206693198623925,0.0011652985419676402,0.10487904304631858,0.09200591807576419,20,10,65,58,0
0.0010373981444196788,0.0011307493512551046,0.10791171630337987,0.09212372949463343,24,12,61,59,0
0.0008416864545356057,0.0006211746837931777,0.10399304129520553,0.053569716951640985,30,14,62,66,0
0.0007678830246888511,0.0004462810071362696,0.10234517627772294,0.0606999587180268,30,30,67,70,0
0.0008194077187364331,0.0003789085655157886,0.1097411534475618,0.052060712874736625,30,36,66,68,0
0.0009289189372037141,0.0003834289884783647,0.1301871818370788,0.05286270262155186,30,38,67,69,0
0.0010443956744720041,0.0004033310617287682,0.14288451705707397,0.05446444713882386,28,26,72,75,0
0.0010958620662618263,0.00036209520759972717,0.16108330744119653,0.04909437328225179,32,34,70,67,0
0.0010738679719153581,0.000365529809860439,0.16337661059200084,0.051357569538487066,28,32,75,76,0
0.0010044626332698595,0.0003748672431610562,0.15176174315559093,0.05155507608372756,28,34,74,72,0
0.0009878689387840661,0.0004047416828236552,0.14156768655137303,0.05036527935922837,34,34,74,67,0
0.0009420559611169245,0.00040852633094529497,0.1283593740045931,0.050657539231763936,30,30,82,69,0
0.0010001546666983461,0.00040967538827179636,0.141534566072267,0.04882504293502724,30,28,68,60,0
0.0010220168547330367,0.00039273558983628204,0.13715776088480083,0.04935841203403625,32,24,65,61,0
0.0010600946577524815,0.00034355249543363683,0.14431652630214284,0.041751023756718735,26,22,69,74,0
0.0009719308659059781,0.00034031375291747567,0.14154856753668088,0.041637017893169856,34,22,73,75,0
0.000880477955263494,0.0003044347700519663,0.12442819690436502,0.038485958327807414,30,26,78,80,0
0.00088991920256142,0.00030865822836090073,0.11919060171481098,0.03829719218632987,30,38,79,80,0
0.0008137936548080785,0.0003302704152516947,0.10950692531417504,0.04345364184701154,26,30,76,77,0
0.0007685471797531742,0.000307660654454025,0.1078900174134325,0.039186114705354054,30,29,80,74,0
0.0008354860121254179,0.0003178536807327827,0.11078499063609755,0.04233760507433965,28,32,71,66,0
0.0007518853557614979,0.00029992470550892935,0.099712007822853,0.04089165865044964,38,30,73,72,0
0.0007063162899771901,0.00032519932543142847,0.09501836792397199,0.043049593093119405,34,32,72,66,0
0.0007027725913789116,0.0003304874691203365,0.09309679047312173,0.044671555484705534,34,28,72,62,0
0.0006330742892605343,0.0003595753029922688,0.08392476983562558,0.0440311042583584,26,24,73,64,0
0.0007478964482014407,0.0003245132400101389,0.0981426347698413,0.04075936434324146,26,28,67,66,0
0.000823296897191212,0.0002631272424965246,0.10284093269414948,0.033465132205658756,26,28,62,72,0
0.0008722154191156852,0.0002531312600125663,0.10724932361320817,0.03233903202888574,30,32,60,84,0
0.0009599933106864329,0.00023264050254598749,0.11175432204663033,0.028909256571526522,24,30,58,82,0
0.0008625714285573591,0.0002415046751386183,0.09680735086305078,0.0288403097295195,22,30,61,76,0
0.0007779257537728012,0.0002764612471662229,0.0862637419857832,0.02923522366961347,26,20,56,64,0
0.0007290273999627351,0.00027806945670336874,0.08202657624797208,0.029783558551648995,34,33,56,69,0
0.0007064249026810065,0.0002789759443419243,0.07875795280276823,0.02839368213766422,28,24,56,63,0
0.0008194622611731301,0.0002842976001563294,0.0898374824853472,0.03521012688245327,26,24,55,60,0
0.0008280161884840711,0.00027261126330274617,0.10049928152476335,0.031894793311917885,24,26,63,64,0
0.0007972201576730896,0.00024960842081292586,0.10237213899538793,0.03262014099274084,30,24,64,65,0
0.0007435024104020439,0.0002666874593064855,0.09492678539401231,0.030744319016731414,28,26,72,63,0
0.0006771097532292976,0.0002305829426116671,0.08198798005856524,0.02236184872203754,34,22,70,62,0
0.0005702860711241891,0.00022382441528728456,0.06611573351599406,0.021833238218902908,30,22,73,58,0
0.002681705318660818,0.00045296790115797493,0.37161363764742295,0.05591470922040804,34,27,55,61,1
0.002617504523663261,0.0003845326311482692,0.34077758417971843,0.05297177293877175,28,32,60,70,1
0.0024046548190755205,0.0003914783478610581,0.32996044194768553,0.052149521941077664,28,34,62,74,1
0.002232078538195543,0.00043619087590593734,0.30427961569395223,0.05034991500605391,34,28,57,77,1
0.0020315986291651964,0.0004586967806200623,0.27978756393104615,0.05587730373010447,32,37,60,70,1
0.002227599700904327,0.000470594421150266,0.29062881499171267,0.057973349023102416,30,32,52,71,1
0.0020018567028782224,0.0004641395309119596,0.25976455451693337,0.05526738710574645,32,32,57,67,1
0.00168738381500829,0.00045774603566915587,0.20127445606971725,0.054762492764744285,28,22,55,66,1
0.0014742486644210731,0.00041205967487183663,0.18236818976991576,0.05060852436413031,29,29,54,66,1
0.002179392504018638,0.0006227678168521252,0.28358952397444376,0.06105563887589654,24,22,59,66,1
0.0023639562881433095,0.0007742492405084611,0.3104596529435355,0.07054918679029441,24,20,58,63,1
0.003001747911271851,0.0007640698214030363,0.38850073653956646,0.07826056473091586,30,24,64,64,1
0.0031476139559297104,0.000686618487439947,0.40592449753752824,0.07611764990107649,30,20,63,66,1
0.002791272189230286,0.0005185736210019285,0.354532305731284,0.06946332229296319,26,28,62,68,1
0.0031114990662351395,0.00045414661570459945,0.42634712318457496,0.06723656027665889,32,34,59,68,1
0.0029702219692105242,0.0004336553894333041,0.4229224628391875,0.06329328816397838,32,38,59,69,1
0.0030683243901121504,0.0004358307418115135,0.44757567870589693,0.07129506082291605,32,40,65,75,1
0.003037111100626213,0.0004495379936528295,0.4716085276986279,0.06782455492803985,30,30,67,78,1
0.003172131981325529,0.0004288684799141479,0.4753476628845803,0.06718198849055748,32,32,64,75,1
0.003685866578807428,0.0004020287474418245,0.4762326955407773,0.06317001232994701,26,34,65,73,1
0.0036835213015050917,0.0003895241648314474,0.5142675250063108,0.05828087661203041,32,36,68,77,1
0.0035876295589527324,0.00039075088216670366,0.5020290256761396,0.059322474892922424,28,34,66,77,1
0.003211111739674021,0.0003948123701215091,0.44816419592040563,0.05553498956286048,26,32,69,78,1
0.0033360044225357547,0.00038115647728349106,0.4589141078994859,0.05423799980556421,30,32,67,81,1
0.0032705709212801993,0.0003411640492653982,0.42041603959345003,0.048745992160822635,30,36,69,78,1
0.0036936443078241766,0.0002989985704627905,0.4517759231794487,0.045168338395362995,26,34,62,82,1
0.0038498096372022307,0.0002850775988546349,0.48572850300131504,0.046607723842901266,28,39,57,82,1
0.003718425939436833,0.0002938953901744707,0.4689444705893604,0.04753249070882797,24,40,54,82,1
0.003215154235779066,0.0003279336579254647,0.43174306752994007,0.04779299264995571,28,36,56,77,1
0.003105545877247777,0.0003253164710212541,0.41574654550443646,0.04653938414409353,30,32,58,76,1
0.0026424912384376952,0.00030243449777887766,0.3772078474555105,0.043567287312420856,32,38,62,77,1
0.002740278166792174,0.00028802559976604376,0.39427477381406123,0.040034537604533044,30,30,62,73,1
0.0026834082197413744,0.0003198316689304674,0.40133961815827435,0.04667217888583265,28,34,64,75,1
0.0025660972413021643,0.00031877612012331635,0.39286165479499563,0.04901295732199838,32,28,64,73,1
0.002880608046635286,0.0003627418976059209,0.39820192999291576,0.05562956337905843,34,34,64,68,1
0.0024287407595899534,0.00040434546308200543,0.35498702235884555,0.06105966516560764,34,36,67,68,1
0.0031687167961224156,0.0003649062076496849,0.41024212583779274,0.05865013058448333,26,36,61,67,1
0.0031330469857856307,0.0003907640361529861,0.43384309938767246,0.059102364760602384,30,40,60,68,1
0.0030585013210982265,0.0003612389462909237,0.4329230837820608,0.05590292756687565,32,36,61,72,1
0.0034370075926627337,0.0003521753346862192,0.47738785515771287,0.05298599051625498,26,34,57,72,1
0.002969053546732684,0.00033428447296941446,0.4150921670584837,0.04844100282421536,30,36,63,79,1
0.002889275483003649,0.00035402434088698296,0.36598528319351764,0.044069083768908786,28,28,67,84,1
0.0027868300891246423,0.0003255523041411275,0.36377505694689055,0.04197094012414321,22,26,68,87,1
0.002458732308336432,0.0002904610595814807,0.3271750161354964,0.040970309810002895,20,32,72,88,1
0.0027246638111592496,0.00029619367780846814,0.3306452133990715,0.0408542016409121,22,32,67,81,1
0.002256749747097777,0.0003010936387333404,0.3003488682913088,0.03931610980873761,24,28,71,71,1
0.00210468651003709,0.00030135974860979743,0.26191817015426105,0.038640325900450787,20,38,73,68,1
0.0024099523509029867,0.00030935685840672683,0.30245539448495845,0.03899272979478606,22,30,71,68,1
0.0022923095917217404,0.00032280967902380416,0.30780467202940587,0.037288204834443686,24,25,67,71,1
0.000536401465345359,0.0007483759702983639,0.045132864134357215,0.13089903024297608,22,42,52,80,2
0.0005271886020288123,0.0006554038611021175,0.04267882189627405,0.11259701896943815,22,38,56,86,2
0.0005316171306691997,0.0007304559590964571,0.04283810677754014,0.12833829446629932,20,36,58,88,2
0.0005261021568937263,0.000843039680217474,0.0416500406876305,0.13700378156936208,24,28,54,78,2
0.0005425789745005612,0.0009336189249629708,0.04246225260840081,0.1552063220013084,26,36,46,78,2
0.0005467067911087203,0.0010219534914780218,0.04217276580496137,0.18306094314063256,20,40,50,77,2
0.0005539884976281716,0.0011080872269269367,0.042610162466318005,0.19778143442872487,22,42,50,79,2
0.0005483033607057197,0.0010802281080064624,0.04208167323532981,0.21030606802644364,20,46,50,85,2
0.0005492399639320232,0.0012189864724385872,0.04279696001673978,0.22844467189547962,20,40,54,90,2
0.0007075255973277318,0.0010985592513744888,0.053126670139634076,0.18257926402124927,17,28,34,76,2
0.0006628615814496613,0.0009724991277661664,0.05338745639182115,0.15259408305323724,22,24,44,73,2
0.000707304660235699,0.0013528110805125651,0.05685083176231358,0.1609214169113664,25,24,52,63,2
0.0006863484138364584,0.001367255478078849,0.057952547471415844,0.16927485115608862,24,20,56,57,2
0.0007304203022365056,0.0018558420110612204,0.06269987152669126,0.2766858601231041,23,30,66,68,2
0.000681047329445279,0.0021139920707549105,0.06457952975422868,0.3184586090535179,24,28,64,73,2
0.000694007361876762,0.0018997036848719504,0.06382912635240501,0.3272199047949713,23,34,68,84,2
0.0006473100703757123,0.0020472551476532572,0.05500477669372203,0.33754435250602005,22,34,64,84,2
0.0006227147420242994,0.0019509106870361473,0.05399089784805388,0.3138266042038459,31,36,64,79,2
0.0005995594126107696,0.0020508281050715936,0.05193275364437066,0.34416172258328465,32,36,72,80,2
0.0006558929685514109,0.0022970864339873203,0.053104171604269106,0.37423572840578295,31,36,77,75,2
0.0006646566573715823,0.002154171830563557,0.05578505314174807,0.3810948229297543,24,40,68,83,2
0.0006630540257101455,0.0020896526770218878,0.05706107999006287,0.37285201995871664,25,38,66,82,2
0.0006379995026422043,0.0020224935962660996,0.05914176247913999,0.3506973490907799,28,34,65,85,2
0.0006405690028205488,0.00215021978705879,0.05941029315816935,0.32858707407650484,27,34,62,85,2
0.0006311287491522533,0.0019132250464069525,0.05907911449053306,0.30822073145218903,24,34,61,80,2
0.0006501988703794773,0.0020002684494397588,0.058092999682956024,0.3088494732363568,27,28,68,85,2
0.0006411475734607077,0.001983277658516221,0.057589125834736916,0.29941254689342023,26,32,67,83,2
0.0006296328577986173,0.001707680115312716,0.05462598169941245,0.28157828012164204,29,30,59,87,2
0.0006417018620960047,0.0016446092373981385,0.05525196874664325,0.2745785283590944,26,34,69,87,2
0.0006342705122581178,0.0014154235092957027,0.053614105782043495,0.24580820666415923,31,42,66,85,2
0.0006381407397749466,0.001381086615877095,0.054049556611601324,0.235289420507776,34,40,62,85,2
0.0006774690815307961,0.0013806163362441975,0.057112503162555846,0.23330984651761338,29,40,62,84,2
0.0006299702564844821,0.0013874180182084596,0.05716129813591624,0.22908429658101734,28,32,70,86,2
0.0006634565908139967,0.0013742054230641346,0.05883073414902192,0.22798141009775208,29,40,67,84,2
0.0006379426238632349,0.0014387007402654028,0.055637271315462096,0.23708411428025047,24,36,60,78,2
0.0006797128760693935,0.001372921949695308,0.055892998079594663,0.23344561591237023,29,40,59,85,2
0.000642378400746445,0.0013740309929933267,0.05326884466054461,0.2281008840414696,26,40,57,86,2
0.0006808600828797525,0.0012993014546918355,0.05050889513121863,0.20632389603340429,27,34,62,80,2
0.0006480762289575598,0.0012386188502814097,0.05045772568889507,0.19191591513275702,24,36,61,86,2
0.000671514706965552,0.001156611950340433,0.04740578414139532,0.19033745931635324,23,38,60,85,2
0.0006317312388564146,0.0011048004205336862,0.047293013807090015,0.18137113994744447,26,34,57,87,2
0.0006928931448395664,0.0011992430737346087,0.04655080530213783,0.1861148617778472,21,26,48,87,2
0.0006286166852222707,0.0011361052687295313,0.045591062026070966,0.1812668815958295,20,26,62,92,2
0.0006618283561895759,0.0011492559148905588,0.04706029562197203,0.18114331347930776,19,38,62,88,2
0.000640765475616236,0.0009750375693675273,0.046993456350638826,0.1688572442823137,16,42,64,91,2
0.0006767521330737647,0.001133064588909085,0.04816230382030647,0.18422974312963528,19,35,68,88,2
0.0006267949821879793,0.0011653787007416209,0.04877526655286772,0.1903958457401872,26,32,61,91,2
0.0006916215309492008,0.0011701713333083902,0.04815478993796006,0.1992203931677776,21,39,61,92,2
0.0006356946568968982,0.0011277189312364486,0.04778905667415443,0.20585484022681833,22,44,56,87,2
0.0024076037191200074,0.00027109854127928604,0.39116644891932506,0.029081475619863358,36,26,71,73,3
0.002759763164647374,0.0002526730008799085,0.45316407148589155,0.02978486746866977,32,28,70,79,3
0.003194987244977865,0.0002481271904300543,0.5493183785711486,0.03030307523633264,34,32,67,80,3
0.003366596688602712,0.0002550678115055345,0.5677423165508194,0.03061496854972413,32,34,69,84,3
0.0032377915563911643,0.00028096187012190127,0.5483825769058934,0.03330845053720022,32,36,68,83,3
0.0030295574970145324,0.00028542347498228276,0.518170007139417,0.032929103917526605,34,22,68,79,3
0.0026173191209658176,0.0002840893802879427,0.42765101424716495,0.03201389398509635,40,26,69,76,3
0.002343420606141801,0.00028385757093916486,0.3930206121593845,0.031165034655472837,42,30,72,70,3
0.0021951039189660525,0.00028874385786244964,0.3505549629642249,0.030344196864441255,40,28,73,68,3
0.003052942375722639,0.0003282369644025971,0.3428325446049189,0.03277464582910134,20,20,80,63,3
0.0033331504475376627,0.0003493072501212912,0.3618039365525837,0.03478461316305543,26,20,76,59,3
0.003626117597514692,0.00037874215568920003,0.42613052734762313,0.039323287935876514,22,20,72,57,3
0.002857683140303051,0.0003797550255823849,0.42996350275353307,0.03691857260883057,30,14,75,61,3
0.0031795256456643357,0.0003705578316503545,0.49880368615756543,0.03890969256779705,34,26,77,64,3
0.0041621819696381936,0.0003259641894894441,0.5710961665413848,0.0367699799820536,32,28,74,74,3
0.004333183615745806,0.0003244583175955254,0.622616924343998,0.03579441971994369,36,25,73,72,3
0.004787553090252461,0.00032924163333909636,0.717840032360134,0.038009389737368164,36,30,70,68,3
0.0049911167085608475,0.0003269045415136525,0.7487130422377315,0.038892520978636685,42,27,64,66,3
0.004826601512736857,0.00033592574773838347,0.7657587636660603,0.04040904320494547,42,34,62,74,3
0.0048553365156117426,0.0003378178233007075,0.7140262774312471,0.040893118719259505,40,31,65,78,3
0.004053391146382642,0.000336580873003228,0.6102276668063777,0.03951574238733659,34,30,68,71,3
0.00388244065176596,0.0003155534769455949,0.5734952526581442,0.037770378201749194,34,31,70,70,3
0.0030655257329097836,0.00030365965113201394,0.47359249590918556,0.03486987324030863,30,30,73,68,3
0.0031280984207956355,0.0003058171379488173,0.4284209875612703,0.0320395194974737,24,27,73,66,3
0.002594715860875844,0.00031870007521802196,0.4370723937650818,0.03287331149782317,34,26,72,58,3
0.002232270296990341,0.0002800922478901208,0.3888056604233803,0.0316818157964734,40,29,74,56,3
0.0024613801713257023,0.00028855739302541093,0.4295542713608065,0.032107303944653685,44,28,71,60,3
0.0025582209565207475,0.00028467713769665074,0.4295273142106495,0.031173345376636834,42,25,71,64,3
0.002283406828969851,0.0002789494148767572,0.35984446448221713,0.029937766415266784,28,24,77,64,3
0.0022747697282884637,0.0003199250188118166,0.3723209876631231,0.032144588198420886,38,25,73,71,3
0.002188561911262937,0.00028795870710886766,0.34268125790730636,0.03331907669266391,32,28,71,67,3
0.0021480991829946807,0.00030813855508949846,0.3434909281750385,0.03323519091179811,34,25,70,70,3
0.002422127720859313,0.0003055634464107823,0.3757304800572579,0.033562033691208595,38,20,66,68,3
0.002296404694328477,0.00031907413125978134,0.3451697853325724,0.03397186907744713,38,21,71,72,3
0.002360100643631452,0.0003192229602533974,0.3526856393430782,0.03456006023723223,38,22,72,62,3
0.0021897981005097405,0.00031409630331697406,0.3223682673925183,0.034779196223052124,34,27,74,68,3
0.0023164752277987327,0.0003228793080088002,0.3681267512565112,0.03530222896050777,38,24,76,74,3
0.00260535436969947,0.00033996973397029955,0.38091146445923435,0.03665621150968076,34,33,78,61,3
0.002481540920380705,0.00031466653613365024,0.39654425197381016,0.03372506589499027,36,28,78,62,3
0.0026205710722775354,0.00034615498934251356,0.422104153865926,0.035165692082297896,36,27,79,66,3
0.002417011550058702,0.00030109875962291543,0.369459565068821,0.03419511180106184,34,28,78,63,3
0.0026435548570761767,0.00030157888899606935,0.3784974880230086,0.03288582233473387,32,29,73,68,3
0.002285757055871185,0.0003068877644532934,0.3521883399613843,0.03403195175381568,38,22,72,64,3
0.0026324764381358873,0.0003047849452808045,0.36786144635838275,0.03138313014160357,36,27,71,64,3
0.0022455446583831604,0.0003055960298970917,0.3440430054248175,0.030449928922719218,32,22,69,70,3
0.0023008889984242357,0.0003402629618396741,0.33681870944061787,0.03148837019208132,34,25,72,62,3
0.0023028823785302523,0.0003347660010249866,0.3750152902493315,0.033574397049353485,44,22,69,63,3
0.0028428112598229472,0.00033709626117116857,0.42143060663711646,0.03679038517807292,38,31,76,66,3
0.0030576909155450656,0.0003277751801198852,0.48817082273505313,0.03894591188028299,40,30,77,59,3
0.0006445228810565135,0.00022310911593176504,0.04925569846646793,0.01367870804480966,20,16,46,38,4
0.0006035676336148259,0.0002095731670734238,0.04707255566334975,0.013626092178471393,19,18,52,34,4
0.0006452036517765088,0.000214323028497868,0.04564478393730961,0.013471635032459024,20,18,50,40,4
0.0005913685246321449,0.00020114837759133613,0.045439917376439674,0.013634707945652084,20,18,42,40,4
0.0006471523257695174,0.00020600763696632628,0.0463224797047428,0.01347348971200012,18,16,42,52,4
0.0006163560282714599,0.00020901256556847165,0.04722288896682736,0.014172078583508111,20,16,40,44,4
0.000630792199754474,0.00022341238204724438,0.04701834600907321,0.014654710274550283,24,16,42,44,4
0.0006134516420962969,0.00020639568928621088,0.046474303142197665,0.014567875623495964,20,20,42,46,4
0.0006431688398529651,0.00022846880211775943,0.04348013404386694,0.014820427667323747,18,16,42,40,4
0.0006298422028389647,0.00021433735664962259,0.042999317385422405,0.014615448711333266,21,16,35,36,4
0.0006114517883218243,0.00022784732782717178,0.04244525722012347,0.014419653419134676,18,18,36,36,4
0.0006018517922233134,0.00021207567981153255,0.04493557336053883,0.014172765884582855,21,20,40,40,4
0.0006164676233728294,0.00020737712095091727,0.044957957837636855,0.013724671311524867,18,18,34,40,4
0.0006089927646443544,0.00019938779289018944,0.04587316960471731,0.01391693669915246,23,20,38,40,4
0.0006212218709310129,0.00021957377646855995,0.044050351648009654,0.014231420185459366,22,16,42,38,4
0.0005881588137859055,0.00020385135534007216,0.04531659018362224,0.014101690006869921,23,18,36,40,4
0.0005972268228889546,0.00021361139684490036,0.04506426888222968,0.01410911266104269,20,14,36,40,4
0.0005986594753782053,0.00021104816900636633,0.044888846379443195,0.014391243986157437,23,19,36,48,4
0.0008005948492808542,0.0002441567861416232,0.061218263484278154,0.016655169503040055,18,14,34,38,4
0.0035476521208473288,0.00040694218206927674,0.22289454580708745,0.02705636455093178,5,14,77,31,4
0.003862658022708011,0.0005398549093182995,0.24434862353199985,0.03497730688808254,6,18,55,35,4
0.0038868523491864576,0.0005569155960852782,0.25910298161712786,0.03560347712675442,4,20,61,37,4
0.003606263721825761,0.00045822060071185056,0.270968275315335,0.03224039252250658,6,22,71,51,4
0.001219013765230751,0.00032578567175838626,0.17002735787254822,0.024962617238832186,36,23,69,66,4
0.0011455554669357777,0.00023637392193220382,0.16186953826817616,0.023379141552881618,36,26,84,66,4
0.0010636470292788116,0.00023287930919954505,0.16546521415849036,0.02278049363834999,40,21,78,66,4
0.0009049325714145025,0.000224824380577593,0.14078385511091304,0.02255849501623599,36,26,84,64,4
0.0009145572877267921,0.00033017334716516555,0.13579928536710784,0.024507936161929308,31,20,79,70,4
0.000832127251372487,0.00035057281178958006,0.12880172560694833,0.023235347879532617,34,12,73,55,4
0.000803181997570769,0.00034193409597265393,0.11015407902792443,0.021799011309349334,23,12,66,56,4
0.0007904424564755513,0.00030172766555453776,0.11137947541869793,0.02019856123278768,24,6,68,59,4
0.0006684666328613908,0.00020120458033098788,0.07912789724577328,0.01819560303071772,25,28,60,68,4
0.0006366456942963595,0.00023323745262024919,0.07104772964591984,0.022631476803709416,30,24,57,62,4
0.0005995980279278894,0.00027023147381690667,0.05697911418763104,0.021546125406224227,23,22,60,55,4
0.0005484292157376736,0.0002564890142909826,0.049332945481727834,0.021169544493458647,18,20,58,55,4
0.0006844391480071446,0.00022209069797738486,0.04825389229864824,0.01801525825605232,15,20,52,58,4
0.0007229085629302434,0.00020261272753440123,0.048973319413366315,0.01588679712049501,16,20,41,57,4
0.0007838727636727595,0.0002715205736201454,0.05246388521866924,0.022131009290785597,15,14,42,62,4
0.0007924674070543491,0.0005802220625840088,0.05116897409631119,0.03649351164350219,18,10,39,50,4
0.0008289871746046177,0.0009912270538387303,0.05150954940156976,0.06636641324860007,19,6,38,45,4
0.0005833508185019862,0.0013268391426678986,0.04609009680118632,0.07540297603632294,16,8,35,35,4
0.0006670423419891277,0.0013071599823136048,0.048610551490241016,0.07176039795287048,17,6,38,30,4
0.000563666222962604,0.0009306360190734795,0.04519437002141464,0.05491591286211967,24,6,35,27,4
0.0006017432356404282,0.00028629429453859776,0.04341851320256392,0.016376434901216323,17,10,44,49,4
0.0005950052297395608,0.00014448703651164934,0.046343479618691195,0.010477142219258625,14,16,42,49,4
0.0006086079184525176,0.00013968825663332056,0.042081827935246376,0.010307287741536707,19,21,38,54,4
0.0005952113747153932,0.0001405475592838232,0.04443846485471439,0.009402614443032527,16,22,40,48,4
0.0005798893665406284,0.0001427401860124868,0.04174840096538678,0.009386625924685815,25,17,46,46,4
0.0005520919477607545,0.00012540868590987935,0.039704331322503554,0.008871663232410756,24,18,36,46,4
0.0010914187719914953,0.00044728609186063637,0.15592675770507505,0.06278264488597923,26,22,72,71,0
0.001163358950758276,0.0003929294047095127,0.16712442611312628,0.056380962099008364,30,26,68,76,0
0.0011661039726130716,0.0003868197789925072,0.15938916343059598,0.05293933773620058,28,30,69,72,0
0.0011669756846310587,0.0003490143247344238,0.1520564533888911,0.047113596835880615,36,30,70,70,0
0.001128469352477302,0.00034114252516620545,0.15774548022357834,0.04446688939033035,34,34,73,72,0
0.0011215630852953046,0.00033996038179392985,0.1535555240235118,0.0431398523272769,32,30,74,67,0
0.001286552749160952,0.0003066974125945896,0.1723011170526809,0.041854598121897284,36,30,72,70,0
0.0012756038607394115,0.00030602386364986586,0.17250963305881303,0.04256636595150095,40,34,68,70,0
0.0012670106904305865,0.0003044348366336283,0.1738228059442796,0.039774525877039175,32,36,61,69,0
0.0012025270859646639,0.0003561460156386307,0.16977750912258402,0.042381258633014,34,32,66,68,0
0.0011779041618079696,0.00035527530999337835,0.16294197533190355,0.0416581520834481,36,36,62,71,0
0.0011703282228162288,0.0003470208438582758,0.15648471852226545,0.04120208532371463,36,34,67,72,0
0.0011161936885978746,0.00033562851652347447,0.15454369930914819,0.039408131135225004,34,38,68,68,0
0.0011148252557567448,0.0002925912839688252,0.14338188841564192,0.03555704142922549,37,36,68,74,0
0.0011644952920018628,0.00028931141439272353,0.13369771625668594,0.03757697443895423,38,30,70,71,0
0.0011312055884844623,0.00024900821462585756,0.14042770018187362,0.03662249188518282,37,30,67,73,0
0.001066429313997054,0.0003434796335219249,0.1221357395278626,0.047039750530858356,34,28,80,70,0
0.0010346581857059878,0.00040926177399964634,0.12319189952091972,0.06514760854468842,35,34,76,72,0
0.0009061570662743003,0.00044305840735133113,0.11251913350414118,0.06225736421854802,32,30,80,76,0
0.0008956276996857678,0.0004202050776046136,0.10796126657499724,0.06102488666949051,35,34,78,77,0
0.0009302680537349754,0.00041509039542415594,0.11007957330256678,0.06400660582774807,32,28,69,79,0
0.0009234934324401925,0.000372301765379959,0.1136378666709113,0.04729908305358275,31,24,63,74,0
0.0009694723037159671,0.00039312438222074747,0.11183393610596785,0.05529673033617889,36,34,71,78,0
0.0008900980840432498,0.00037149161528231555,0.11357301418438875,0.054827720989929656,27,30,68,67,0
0.0029326348030744164,0.00043496664889494137,0.3644851858519922,0.05709133705706084,19,20,66,64,1
0.0026169173646976213,0.0003437823572111398,0.3543328829723978,0.05090139718374752,20,16,64,66,1
0.0029244870773971815,0.00037483425889681837,0.4038325328076434,0.04995065437200201,26,24,61,72,1
0.002898386955145753,0.0004820590813649501,0.3975885802608341,0.06675165971098396,30,28,59,73,1
0.002937800245508003,0.000537170244422834,0.4061377865953965,0.07390525459853806,32,32,59,70,1
0.0030093920984022,0.000633990487826409,0.4230006454133729,0.07890394937040875,32,36,56,69,1
0.0026035688316004986,0.00065806932815657,0.352301684877736,0.07893612986905392,34,38,66,58,1
0.0024217650819669968,0.0005521129344690801,0.3355287797717272,0.06466494885676931,34,38,65,58,1
0.0022395206400952776,0.0005457105957230265,0.31232020405631816,0.06422494410821107,27,42,67,60,1
0.0021208486477123836,0.0004851612038488476,0.3065432700189024,0.06100686137439998,36,36,68,64,1
0.002025404559081527,0.00045134400714427476,0.3148469784929334,0.05660246536507907,34,30,67,64,1
0.002080715414101104,0.00041437169849864344,0.3073382440703122,0.05702717108008214,32,32,65,70,1
0.0022304969564947577,0.00036238391661796716,0.30831259245735587,0.04924575755242606,30,29,68,67,1
0.002156067048098715,0.0003391523758837624,0.30428937192345107,0.044811435613662735,32,26,68,66,1
0.002365283215052227,0.00035804654927431174,0.32748015669253266,0.04900057542185847,34,36,70,64,1
0.002427443430089327,0.00041202364696582875,0.346792526269008,0.04796357096376242,36,30,67,60,1
0.002295000309038902,0.00040108853642722124,0.31163555104370183,0.04859338338117074,36,32,65,68,1
0.002262658155267123,0.00045059748191376883,0.3151613041724562,0.05338244070172107,34,32,62,63,1
0.002296015508108262,0.00042522609054901193,0.29979621045557087,0.050879924178752776,30,36,62,63,1
0.0019947234466743398,0.00046204566180163944,0.2595868282563105,0.05355449115368417,26,38,69,59,1
0.0019194421953245902,0.0004334502079619286,0.25294106760188073,0.05571141184607755,26,37,72,58,1
0.0019940646886017375,0.00046585137870025495,0.2541022827343691,0.05674224250030336,38,30,71,63,1
0.0018589862293184164,0.000468530748337973,0.27557401117781893,0.05709522598308209,34,36,75,54,1
0.0023171359774571024,0.00043164619505468523,0.3362852575452801,0.05580027323363911,32,34,67,59,1
0.0006105309254060395,0.0020396744424225747,0.07077582015050352,0.34399640526188047,20,26,80,92,2
0.0005941997574279591,0.0019899561613084316,0.06439720934617249,0.33456051543284415,22,30,80,90,2
0.0005807579247094068,0.0019134238734132602,0.06095696848306248,0.3216465531884858,22,34,78,82,2
0.0005853679075130523,0.0016800787936709968,0.05569236952499052,0.30801834550737917,24,38,70,90,2
0.0005647790081183334,0.0014299815883761075,0.05500042776428281,0.273118771708614,30,38,72,98,2
0.0005592512092385525,0.001319237405839615,0.05339416187465165,0.24566763361376068,34,42,72,91,2
0.0005560112812137763,0.0012036947700171587,0.0492502616451445,0.2345199610853598,32,46,68,96,2
0.0005641974340657132,0.0011366041337251404,0.0499994842722845,0.21634497510639142,24,40,64,96,2
0.0005541852111736696,0.0011136405229135403,0.0497090417801441,0.22023082036453567,30,42,64,98,2
0.0005581123353150595,0.0011191004447210536,0.04832664322190072,0.2213804757595065,28,38,62,99,2
0.0005555173110929652,0.0011342144768663682,0.0490468972190026,0.22500607606277453,26,40,57,95,2
0.0005430489526442939,0.001213385975905301,0.047784124132385385,0.23560502832031274,28,34,64,94,2
0.0005582051552064358,0.001181316719303415,0.04796160465828367,0.23152490025800535,26,38,68,97,2
0.0005513811706928132,0.0012180384014918268,0.04878617865684132,0.23474941863887083,30,40,72,97,2
0.0005609329277770206,0.0011585970914087084,0.04864699267001797,0.21488673942349706,28,40,64,93,2
0.0005517028560678874,0.0012101462033523394,0.048191480028386115,0.21568461342190673,28,40,68,93,2
0.0005626914424599632,0.0012131174229767097,0.04724063677948842,0.2110937745400809,32,40,59,85,2
0.0005510729159216463,0.001142822388477256,0.04660136447604208,0.20017787862935296,34,38,66,79,2
0.0005553371927582551,0.0011841071945055321,0.046552437126209115,0.20528443843819616,28,40,62,82,2
0.0005439033103936735,0.0011034465955454317,0.044743061131542014,0.20263581287643173,24,30,62,81,2
0.0005533115535584685,0.001066916151856511,0.047365473463726604,0.1993357778589844,30,34,53,86,2
0.0005443722946611216,0.0010462623492580243,0.04651829848894,0.20040585322465304,26,34,58,87,2
0.0005528451866928493,0.0009701435760933467,0.048424256944434085,0.1847352206723653,30,48,58,81,2
0.0005417288891961312,0.0008110962785905373,0.04708273957608695,0.15213440133643433,22,50,54,84,2
0.003416003574503886,0.0002916705353962469,0.5217076683856251,0.02902731546927021,28,21,68,64,3
0.0034019590188447673,0.00029369883336512865,0.5287427115835085,0.029807714784917262,30,14,69,64,3
0.0035296503057006996,0.00030934310321845885,0.5425057938903761,0.031080452926678583,32,23,72,63,3
0.003435082245314899,0.000326769164781919,0.512980452381852,0.03261084982300239,38,18,75,71,3
0.0032415920458691585,0.00028404314773146746,0.4660368217392658,0.03267549927597248,42,24,75,65,3
0.0028538682766446138,0.00029642642770570643,0.40445876591272256,0.031320279680737195,40,18,71,64,3
0.0028788730856461353,0.00028382989747274324,0.3930237083243719,0.030671675272265105,40,27,70,62,3
0.0026963266774934487,0.00027419489454748503,0.4189567041335837,0.028837255388464045,34,24,71,60,3
0.0024874896135409687,0.0002615172532544582,0.4006463234041015,0.027644528350264153,36,23,67,64,3
0.002881361067070043,0.0002703561280544378,0.47623529009932913,0.028891746968536598,36,22,73,68,3
0.002814004673889153,0.0002600362648513742,0.45215143429446125,0.028449262514568075,38,28,67,72,3
0.0027670795538213373,0.0002563775250185612,0.44376608460962796,0.02760406636565064,34,20,71,66,3
0.003124655677406149,0.0003322822279989407,0.5018050206476949,0.03304640830036287,34,20,67,64,3
0.002763889516690699,0.0003471026400392792,0.41416740148485626,0.03213654198898501,34,18,67,60,3
0.0028706249128561856,0.0003337582221822319,0.4597745032271361,0.0320011555349246,38,24,71,68,3
0.0027532137461265534,0.00031750958247543144,0.44423397735308723,0.03180620898272569,40,24,73,66,3
0.0024957753522822845,0.0002768419422557482,0.38556965618867467,0.029865706119250997,34,21,78,64,3
0.002799634286252314,0.0002986670340297818,0.44211598333531393,0.031193911906922642,40,18,73,65,3
0.002990094726052842,0.0003411503399952986,0.45417583768806075,0.03714248125942909,38,27,70,63,3
0.0029419215048183517,0.00041148692005251337,0.4490239970783149,0.03763208491045662,34,16,64,69,3
0.002972936750835365,0.000399060385363691,0.47696451394770417,0.03884581946211499,28,24,66,70,3
0.002863314937716148,0.00040016323377984686,0.4560472151945267,0.037627482216357803,34,20,64,70,3
0.0023711927130820607,0.00039357546286319955,0.37848937377337466,0.03281726745732592,26,20,69,69,3
0.0022809805184459803,0.00027623936507302515,0.3756350264223055,0.031896902013228666,26,26,72,68,3
0.0005263395375714523,9.71197740219966e-05,0.03865861299071342,0.0070892101983810445,18,12,42,44,4
0.000519280351267813,9.129049846656523e-05,0.03839313237405902,0.007058199468642415,16,15,40,50,4
0.0005195057881505023,8.813909426229929e-05,0.038227050890169444,0.006944694330682731,18,10,34,54,4
0.0005186304568441047,9.69043050044425e-05,0.0382517663846077,0.007040172537305397,16,15,38,56,4
0.0005118158159408929,0.00010440094389735446,0.038512411883827466,0.007283797935386889,16,16,38,50,4
0.0005285965139249806,9.838951420599047e-05,0.03978233911944193,0.007091434961818693,12,21,34,52,4
0.0005455229263574087,0.00010383352473048364,0.04180637175171401,0.006950346537940255,18,16,48,50,4
0.0005692739621557893,0.00010121207648120236,0.0425179406246405,0.0072196090880228235,18,20,48,44,4
0.0005616250527486261,0.00010072475886947672,0.04007801434180655,0.006907255182607446,16,18,44,44,4
0.0005436707406368645,9.508535471810163e-05,0.03991843982419652,0.007178935269634723,18,16,42,50,4
0.0005813471052377045,0.00025526910462811094,0.04727292555284122,0.015124398751544216,20,18,40,56,4
0.0006143626234364987,0.00025817524506051396,0.051533918248252715,0.015182193305991722,18,17,36,45,4
0.0007605750624010932,0.00037092683717174864,0.07104173984309757,0.02219135955386361,18,14,42,38,4
0.00084459343766014,0.00039253629511169465,0.07558239926438022,0.025126604566086837,14,16,43,35,4
0.0008360401875214942,0.00029972888097551034,0.07428495733539882,0.02079069501440974,16,14,50,41,4
0.0007028784500995411,0.0003346369299385697,0.06682276914788356,0.022354818676224988,18,13,48,42,4
0.0007052854670030013,0.0003096728693254126,0.06137908274140898,0.01943513613947271,20,12,50,44,4
0.0006584251058605751,0.00028121279355924574,0.05923048943206966,0.01769217263963707,20,11,52,44,4
0.000731946847552006,0.0002987422302003706,0.05691429794854527,0.015699612402489807,18,18,46,34,4
0.0006815777980025566,0.00022653785213416528,0.05821307525029197,0.013978967411930929,16,10,48,34,4
0.0006580406223548157,0.00023030847969428416,0.04973454923351928,0.01406318617285773,16,12,50,34,4
0.0006313730267650897,0.00022234046980455275,0.05024433656318249,0.014061265886267013,16,12,45,38,4
0.0006503162393907394,0.0002156717474132647,0.05092818016721871,0.014125611444531042,18,14,43,40,4
0.0006260854731897394,0.0002082290108095385,0.049543612614994965,0.014039113980984983,16,12,43,40,4
